TStamp, Trg, Frame,LED_1_PD_1, LED_1_PD_2, LED_1_PD_3, LED_1_PD_4, LED_1_PD_5, LED_1_PD_6, LED_1_PD_7, LED_1_PD_8,LED_2_PD_1, LED_2_PD_2, LED_2_PD_3, LED_2_PD_4, LED_2_PD_5, LED_2_PD_6, LED_2_PD_7, LED_2_PD_8,LED_3_PD_1, LED_3_PD_2, LED_3_PD_3, LED_3_PD_4, LED_3_PD_5, LED_3_PD_6, LED_3_PD_7, LED_3_PD_8,LED_4_PD_1, LED_4_PD_2, LED_4_PD_3, LED_4_PD_4, LED_4_PD_5, LED_4_PD_6, LED_4_PD_7, LED_4_PD_8,LED_5_PD_1, LED_5_PD_2, LED_5_PD_3, LED_5_PD_4, LED_5_PD_5, LED_5_PD_6, LED_5_PD_7, LED_5_PD_8,LED_6_PD_1, LED_6_PD_2, LED_6_PD_3, LED_6_PD_4, LED_6_PD_5, LED_6_PD_6, LED_6_PD_7, LED_6_PD_8,LED_7_PD_1, LED_7_PD_2, LED_7_PD_3, LED_7_PD_4, LED_7_PD_5, LED_7_PD_6, LED_7_PD_7, LED_7_PD_8,LED_8_PD_1, LED_8_PD_2, LED_8_PD_3, LED_8_PD_4, LED_8_PD_5, LED_8_PD_6, LED_8_PD_7, LED_8_PD_8,LED_9_PD_1, LED_9_PD_2, LED_9_PD_3, LED_9_PD_4, LED_9_PD_5, LED_9_PD_6, LED_9_PD_7, LED_9_PD_8,LED_10_PD_1, LED_10_PD_2, LED_10_PD_3, LED_10_PD_4, LED_10_PD_5, LED_10_PD_6, LED_10_PD_7, LED_10_PD_8,LED_11_PD_1, LED_11_PD_2, LED_11_PD_3, LED_11_PD_4, LED_11_PD_5, LED_11_PD_6, LED_11_PD_7, LED_11_PD_8,LED_12_PD_1, LED_12_PD_2, LED_12_PD_3, LED_12_PD_4, LED_12_PD_5, LED_12_PD_6, LED_12_PD_7, LED_12_PD_8,LED_13_PD_1, LED_13_PD_2, LED_13_PD_3, LED_13_PD_4, LED_13_PD_5, LED_13_PD_6, LED_13_PD_7, LED_13_PD_8,LED_14_PD_1, LED_14_PD_2, LED_14_PD_3, LED_14_PD_4, LED_14_PD_5, LED_14_PD_6, LED_14_PD_7, LED_14_PD_8,LED_15_PD_1, LED_15_PD_2, LED_15_PD_3, LED_15_PD_4, LED_15_PD_5, LED_15_PD_6, LED_15_PD_7, LED_15_PD_8,LED_16_PD_1, LED_16_PD_2, LED_16_PD_3, LED_16_PD_4, LED_16_PD_5, LED_16_PD_6, LED_16_PD_7, LED_16_PD_8
1666172210.933423,0.000000,0.000000,6320.000000,4839.000000,3697.000000,3991.000000,3467.000000,4244.000000,3716.000000,3707.000000,7000.000000,5010.000000,3752.000000,4023.000000,3494.000000,4305.000000,3839.000000,3818.000000,5904.000000,4904.000000,3732.000000,4010.000000,3482.000000,4274.000000,3785.000000,3379.000000,10317.000000,5487.000000,3899.000000,4085.000000,3555.000000,4489.000000,4154.000000,3084.000000,12923.000000,5605.000000,3852.000000,3705.000000,3267.000000,4441.000000,4213.000000,2458.000000,13080.000000,5442.000000,3444.000000,2412.000000,2216.000000,3956.000000,4101.000000,2582.000000,13118.000000,5442.000000,3404.000000,2306.000000,2135.000000,3907.000000,4120.000000,3335.000000,13181.000000,5352.000000,3170.000000,2067.000000,1906.000000,3645.000000,4058.000000,6195.000000,13028.000000,5235.000000,2735.000000,2051.000000,1790.000000,2995.000000,3973.000000,6293.000000,13102.000000,5337.000000,2867.000000,1998.000000,1757.000000,3168.000000,4028.000000,5798.000000,12968.000000,5365.000000,3028.000000,2002.000000,1758.000000,3363.000000,4055.000000,5602.000000,12988.000000,5553.000000,3624.000000,2601.000000,2167.000000,4117.000000,4205.000000,4989.000000,11096.000000,5432.000000,3882.000000,4081.000000,3550.000000,4469.000000,4106.000000,3557.000000,4837.000000,4570.000000,3637.000000,3979.000000,3449.000000,4136.000000,3514.000000,2306.000000,5924.000000,4740.000000,3680.000000,3991.000000,3464.000000,4189.000000,3621.000000,2360.000000,3998.000000,4340.000000,3542.000000,3929.000000,3405.000000,4010.000000,3351.000000,2410.000000
1666172211.292639,0.000000,0.000000,6089.000000,4841.000000,3700.000000,3988.000000,3469.000000,4243.000000,3724.000000,3615.000000,7059.000000,5025.000000,3757.000000,4017.000000,3495.000000,4310.000000,3851.000000,4331.000000,6042.000000,4905.000000,3727.000000,4006.000000,3482.000000,4273.000000,3772.000000,3775.000000,10243.000000,5481.000000,3895.000000,4082.000000,3555.000000,4482.000000,4151.000000,4784.000000,12925.000000,5600.000000,3856.000000,3704.000000,3267.000000,4437.000000,4241.000000,4737.000000,12935.000000,5442.000000,3444.000000,2409.000000,2214.000000,3962.000000,4107.000000,3512.000000,12993.000000,5452.000000,3402.000000,2306.000000,2138.000000,3906.000000,4106.000000,2540.000000,13152.000000,5357.000000,3168.000000,2069.000000,1905.000000,3641.000000,4035.000000,2588.000000,12995.000000,5232.000000,2734.000000,2053.000000,1792.000000,2988.000000,3980.000000,3112.000000,12931.000000,5327.000000,2864.000000,1997.000000,1754.000000,3163.000000,4037.000000,5445.000000,12946.000000,5378.000000,3030.000000,2002.000000,1757.000000,3364.000000,4073.000000,6563.000000,13187.000000,5555.000000,3622.000000,2597.000000,2164.000000,4120.000000,4194.000000,6343.000000,11100.000000,5420.000000,3880.000000,4082.000000,3550.000000,4468.000000,4107.000000,4935.000000,4787.000000,4561.000000,3638.000000,3979.000000,3449.000000,4133.000000,3526.000000,2875.000000,5695.000000,4749.000000,3679.000000,3988.000000,3463.000000,4194.000000,3630.000000,2561.000000,3971.000000,4346.000000,3546.000000,3930.000000,3407.000000,4013.000000,3338.000000,2263.000000
1666172211.636292,0.000000,0.000000,6200.000000,4839.000000,3701.000000,3993.000000,3465.000000,4238.000000,3712.000000,2370.000000,7021.000000,5017.000000,3753.000000,4023.000000,3492.000000,4302.000000,3844.000000,2617.000000,5925.000000,4902.000000,3729.000000,4010.000000,3477.000000,4270.000000,3774.000000,3585.000000,10284.000000,5499.000000,3895.000000,4081.000000,3549.000000,4486.000000,4163.000000,5954.000000,12989.000000,5604.000000,3850.000000,3702.000000,3268.000000,4442.000000,4223.000000,5974.000000,12962.000000,5436.000000,3445.000000,2410.000000,2215.000000,3956.000000,4111.000000,5822.000000,12971.000000,5442.000000,3403.000000,2305.000000,2134.000000,3913.000000,4126.000000,4686.000000,13098.000000,5354.000000,3167.000000,2069.000000,1908.000000,3645.000000,4045.000000,3797.000000,12999.000000,5233.000000,2733.000000,2052.000000,1791.000000,2991.000000,3954.000000,2584.000000,13133.000000,5335.000000,2868.000000,1998.000000,1754.000000,3159.000000,4012.000000,2554.000000,12912.000000,5364.000000,3032.000000,2002.000000,1757.000000,3355.000000,4064.000000,3020.000000,12999.000000,5552.000000,3624.000000,2602.000000,2168.000000,4116.000000,4202.000000,5256.000000,11028.000000,5424.000000,3882.000000,4081.000000,3546.000000,4472.000000,4121.000000,5492.000000,4913.000000,4573.000000,3637.000000,3979.000000,3449.000000,4140.000000,3517.000000,3429.000000,5771.000000,4744.000000,3676.000000,3994.000000,3466.000000,4196.000000,3631.000000,3508.000000,4013.000000,4338.000000,3546.000000,3932.000000,3405.000000,4014.000000,3356.000000,2783.000000
1666172212.011213,0.000000,0.000000,6115.000000,4841.000000,3699.000000,3996.000000,3465.000000,4243.000000,3717.000000,2851.000000,7032.000000,5020.000000,3752.000000,4019.000000,3493.000000,4302.000000,3827.000000,2365.000000,6117.000000,4904.000000,3727.000000,4011.000000,3484.000000,4272.000000,3758.000000,2370.000000,10340.000000,5490.000000,3896.000000,4087.000000,3550.000000,4481.000000,4161.000000,2904.000000,12969.000000,5601.000000,3855.000000,3706.000000,3264.000000,4441.000000,4240.000000,5154.000000,12983.000000,5450.000000,3444.000000,2409.000000,2214.000000,3962.000000,4125.000000,6450.000000,13103.000000,5444.000000,3403.000000,2306.000000,2134.000000,3915.000000,4122.000000,6082.000000,13158.000000,5345.000000,3165.000000,2069.000000,1906.000000,3648.000000,4048.000000,5691.000000,13023.000000,5225.000000,2734.000000,2051.000000,1794.000000,2991.000000,3977.000000,4794.000000,12883.000000,5322.000000,2864.000000,1998.000000,1754.000000,3163.000000,4024.000000,3734.000000,12997.000000,5371.000000,3031.000000,2001.000000,1757.000000,3357.000000,4043.000000,2585.000000,13148.000000,5556.000000,3620.000000,2600.000000,2166.000000,4118.000000,4176.000000,2530.000000,11158.000000,5420.000000,3883.000000,4086.000000,3547.000000,4466.000000,4119.000000,2896.000000,4850.000000,4566.000000,3639.000000,3973.000000,3446.000000,4137.000000,3529.000000,3013.000000,5696.000000,4750.000000,3677.000000,3990.000000,3466.000000,4199.000000,3639.000000,3840.000000,4082.000000,4344.000000,3540.000000,3927.000000,3410.000000,4018.000000,3345.000000,3046.000000
1666172212.354884,0.000000,0.000000,6168.000000,4842.000000,3697.000000,3990.000000,3468.000000,4242.000000,3720.000000,3564.000000,7092.000000,5011.000000,3755.000000,4019.000000,3493.000000,4308.000000,3854.000000,3336.000000,5872.000000,4904.000000,3727.000000,4007.000000,3483.000000,4275.000000,3767.000000,2804.000000,10219.000000,5501.000000,3895.000000,4082.000000,3554.000000,4481.000000,4143.000000,2534.000000,13155.000000,5614.000000,3857.000000,3704.000000,3268.000000,4436.000000,4205.000000,2535.000000,12962.000000,5437.000000,3443.000000,2408.000000,2214.000000,3953.000000,4113.000000,2877.000000,13067.000000,5446.000000,3406.000000,2307.000000,2133.000000,3912.000000,4121.000000,5204.000000,13054.000000,5359.000000,3171.000000,2071.000000,1906.000000,3648.000000,4067.000000,6178.000000,13079.000000,5234.000000,2737.000000,2051.000000,1790.000000,2996.000000,3966.000000,5644.000000,13048.000000,5329.000000,2863.000000,1999.000000,1755.000000,3168.000000,4032.000000,5401.000000,12923.000000,5368.000000,3030.000000,2001.000000,1755.000000,3362.000000,4069.000000,4451.000000,12950.000000,5552.000000,3622.000000,2598.000000,2169.000000,4123.000000,4185.000000,3710.000000,11021.000000,5424.000000,3883.000000,4083.000000,3550.000000,4465.000000,4099.000000,2480.000000,5017.000000,4568.000000,3638.000000,3978.000000,3451.000000,4134.000000,3510.000000,2303.000000,5714.000000,4745.000000,3678.000000,3995.000000,3463.000000,4191.000000,3637.000000,2466.000000,4014.000000,4345.000000,3543.000000,3929.000000,3401.000000,4016.000000,3350.000000,2739.000000
1666172212.714068,0.000000,0.000000,6140.000000,4854.000000,3697.000000,3989.000000,3465.000000,4243.000000,3727.000000,3988.000000,7102.000000,5017.000000,3754.000000,4018.000000,3494.000000,4309.000000,3843.000000,4100.000000,5992.000000,4902.000000,3727.000000,4009.000000,3481.000000,4278.000000,3765.000000,3658.000000,10316.000000,5483.000000,3897.000000,4085.000000,3554.000000,4484.000000,4170.000000,4630.000000,12956.000000,5598.000000,3853.000000,3705.000000,3261.000000,4441.000000,4222.000000,3730.000000,13116.000000,5444.000000,3448.000000,2411.000000,2212.000000,3955.000000,4105.000000,2598.000000,13164.000000,5442.000000,3404.000000,2309.000000,2135.000000,3910.000000,4095.000000,2508.000000,13027.000000,5358.000000,3166.000000,2068.000000,1904.000000,3637.000000,4049.000000,2825.000000,13010.000000,5234.000000,2736.000000,2052.000000,1790.000000,2990.000000,3970.000000,4552.000000,12900.000000,5340.000000,2867.000000,1996.000000,1755.000000,3172.000000,4042.000000,6343.000000,13048.000000,5363.000000,3036.000000,2000.000000,1759.000000,3367.000000,4058.000000,5733.000000,13007.000000,5560.000000,3623.000000,2603.000000,2168.000000,4122.000000,4190.000000,5553.000000,11092.000000,5416.000000,3881.000000,4080.000000,3548.000000,4468.000000,4116.000000,4218.000000,4828.000000,4573.000000,3634.000000,3978.000000,3448.000000,4141.000000,3521.000000,2576.000000,5758.000000,4750.000000,3680.000000,3991.000000,3466.000000,4193.000000,3628.000000,2324.000000,4122.000000,4343.000000,3541.000000,3929.000000,3407.000000,4015.000000,3336.000000,2271.000000
1666172213.057856,0.000000,0.000000,6099.000000,4849.000000,3697.000000,3993.000000,3464.000000,4238.000000,3727.000000,2452.000000,7008.000000,5021.000000,3755.000000,4020.000000,3489.000000,4306.000000,3851.000000,3487.000000,5910.000000,4909.000000,3729.000000,4007.000000,3480.000000,4278.000000,3783.000000,4346.000000,10360.000000,5493.000000,3898.000000,4086.000000,3554.000000,4491.000000,4164.000000,5749.000000,13027.000000,5608.000000,3848.000000,3705.000000,3267.000000,4441.000000,4228.000000,6042.000000,13020.000000,5442.000000,3443.000000,2410.000000,2212.000000,3956.000000,4127.000000,4943.000000,13027.000000,5438.000000,3403.000000,2307.000000,2132.000000,3916.000000,4111.000000,4070.000000,13040.000000,5360.000000,3169.000000,2068.000000,1903.000000,3640.000000,4043.000000,2694.000000,13148.000000,5235.000000,2730.000000,2053.000000,1789.000000,2987.000000,3945.000000,2514.000000,12946.000000,5332.000000,2862.000000,1997.000000,1755.000000,3154.000000,4035.000000,2815.000000,13038.000000,5362.000000,3031.000000,2002.000000,1757.000000,3361.000000,4069.000000,4062.000000,13059.000000,5559.000000,3620.000000,2599.000000,2167.000000,4126.000000,4205.000000,6421.000000,11167.000000,5418.000000,3879.000000,4082.000000,3552.000000,4471.000000,4112.000000,5391.000000,4921.000000,4564.000000,3635.000000,3977.000000,3447.000000,4139.000000,3520.000000,3190.000000,5719.000000,4742.000000,3678.000000,3990.000000,3465.000000,4190.000000,3642.000000,3064.000000,4001.000000,4344.000000,3542.000000,3929.000000,3403.000000,4019.000000,3341.000000,2534.000000
1666172213.432846,0.000000,0.000000,6101.000000,4849.000000,3699.000000,3989.000000,3469.000000,4237.000000,3719.000000,2391.000000,7147.000000,5019.000000,3751.000000,4024.000000,3492.000000,4306.000000,3826.000000,2358.000000,5914.000000,4905.000000,3731.000000,4008.000000,3482.000000,4266.000000,3768.000000,2476.000000,10342.000000,5496.000000,3890.000000,4083.000000,3548.000000,4479.000000,4158.000000,4297.000000,12909.000000,5624.000000,3852.000000,3705.000000,3261.000000,4446.000000,4237.000000,6997.000000,12953.000000,5455.000000,3443.000000,2411.000000,2214.000000,3957.000000,4120.000000,6007.000000,13154.000000,5442.000000,3399.000000,2309.000000,2135.000000,3913.000000,4116.000000,5903.000000,13046.000000,5346.000000,3168.000000,2069.000000,1904.000000,3642.000000,4069.000000,4765.000000,13012.000000,5229.000000,2735.000000,2050.000000,1793.000000,2997.000000,3956.000000,4115.000000,12883.000000,5336.000000,2865.000000,1995.000000,1758.000000,3160.000000,4020.000000,2771.000000,13054.000000,5368.000000,3030.000000,2002.000000,1756.000000,3358.000000,4038.000000,2516.000000,12961.000000,5560.000000,3621.000000,2597.000000,2165.000000,4117.000000,4189.000000,2728.000000,11104.000000,5424.000000,3883.000000,4082.000000,3546.000000,4461.000000,4120.000000,3996.000000,4845.000000,4572.000000,3633.000000,3970.000000,3443.000000,4140.000000,3530.000000,3587.000000,5770.000000,4746.000000,3679.000000,3992.000000,3466.000000,4194.000000,3634.000000,3544.000000,4096.000000,4349.000000,3542.000000,3928.000000,3405.000000,4017.000000,3338.000000,2917.000000
1666172213.776427,0.000000,0.000000,6056.000000,4838.000000,3693.000000,3990.000000,3469.000000,4242.000000,3734.000000,3458.000000,7051.000000,5018.000000,3758.000000,4022.000000,3492.000000,4310.000000,3834.000000,3046.000000,5867.000000,4914.000000,3727.000000,4009.000000,3479.000000,4276.000000,3764.000000,2423.000000,10337.000000,5488.000000,3899.000000,4084.000000,3556.000000,4483.000000,4137.000000,2444.000000,12950.000000,5604.000000,3855.000000,3704.000000,3262.000000,4435.000000,4221.000000,2686.000000,13079.000000,5433.000000,3446.000000,2409.000000,2211.000000,3950.000000,4126.000000,4195.000000,13005.000000,5447.000000,3399.000000,2306.000000,2134.000000,3914.000000,4125.000000,6492.000000,13192.000000,5356.000000,3164.000000,2068.000000,1905.000000,3642.000000,4066.000000,5808.000000,13153.000000,5229.000000,2730.000000,2051.000000,1791.000000,2989.000000,3958.000000,5538.000000,12967.000000,5323.000000,2863.000000,1997.000000,1756.000000,3158.000000,4045.000000,4714.000000,12951.000000,5362.000000,3030.000000,2003.000000,1755.000000,3364.000000,4043.000000,4041.000000,12917.000000,5568.000000,3625.000000,2601.000000,2165.000000,4122.000000,4188.000000,2849.000000,11288.000000,5423.000000,3884.000000,4082.000000,3549.000000,4468.000000,4095.000000,2416.000000,4835.000000,4566.000000,3634.000000,3974.000000,3448.000000,4132.000000,3515.000000,2357.000000,5727.000000,4747.000000,3679.000000,3994.000000,3462.000000,4191.000000,3644.000000,2815.000000,3974.000000,4348.000000,3543.000000,3930.000000,3405.000000,4021.000000,3349.000000,3152.000000
1666172214.135740,0.000000,0.000000,6079.000000,4843.000000,3695.000000,3991.000000,3469.000000,4240.000000,3730.000000,3999.000000,7173.000000,5017.000000,3749.000000,4022.000000,3492.000000,4308.000000,3835.000000,3902.000000,5861.000000,4902.000000,3723.000000,4012.000000,3483.000000,4274.000000,3783.000000,3264.000000,10178.000000,5492.000000,3898.000000,4087.000000,3553.000000,4486.000000,4146.000000,3911.000000,12880.000000,5607.000000,3857.000000,3704.000000,3267.000000,4444.000000,4216.000000,2865.000000,13062.000000,5440.000000,3444.000000,2410.000000,2216.000000,3954.000000,4094.000000,2516.000000,13044.000000,5440.000000,3403.000000,2309.000000,2133.000000,3914.000000,4101.000000,2748.000000,13059.000000,5360.000000,3168.000000,2068.000000,1907.000000,3640.000000,4065.000000,4239.000000,13008.000000,5235.000000,2732.000000,2054.000000,1788.000000,2996.000000,3973.000000,10719.000000,13022.000000,5333.000000,2864.000000,1995.000000,1756.000000,3166.000000,4035.000000,7131.000000,13047.000000,5373.000000,3027.000000,2001.000000,1754.000000,3367.000000,4051.000000,6742.000000,12999.000000,5551.000000,3622.000000,2600.000000,2171.000000,4119.000000,4202.000000,5332.000000,11070.000000,5422.000000,3882.000000,4083.000000,3543.000000,4471.000000,4097.000000,3973.000000,4830.000000,4572.000000,3637.000000,3974.000000,3447.000000,4137.000000,3514.000000,2369.000000,5855.000000,4748.000000,3680.000000,3992.000000,3462.000000,4195.000000,3619.000000,2335.000000,3989.000000,4348.000000,3541.000000,3929.000000,3404.000000,4012.000000,3337.000000,2341.000000
1666172214.479394,0.000000,0.000000,6137.000000,4838.000000,3703.000000,3988.000000,3466.000000,4237.000000,3732.000000,3100.000000,7019.000000,5027.000000,3754.000000,4019.000000,3493.000000,4314.000000,3850.000000,4954.000000,5942.000000,4908.000000,3728.000000,4007.000000,3485.000000,4276.000000,3777.000000,4066.000000,10262.000000,5489.000000,3893.000000,4087.000000,3552.000000,4486.000000,4151.000000,6011.000000,12926.000000,5606.000000,3850.000000,3704.000000,3268.000000,4442.000000,4238.000000,5208.000000,12944.000000,5435.000000,3443.000000,2412.000000,2215.000000,3959.000000,4109.000000,4316.000000,12971.000000,5457.000000,3404.000000,2307.000000,2134.000000,3916.000000,4113.000000,3012.000000,13111.000000,5356.000000,3168.000000,2071.000000,1908.000000,3638.000000,4029.000000,2540.000000,13024.000000,5230.000000,2733.000000,2050.000000,1791.000000,2987.000000,3954.000000,2777.000000,13004.000000,5332.000000,2866.000000,1999.000000,1753.000000,3158.000000,4045.000000,4635.000000,12882.000000,5378.000000,3032.000000,2000.000000,1754.000000,3366.000000,4071.000000,12066.000000,12923.000000,5568.000000,3622.000000,2597.000000,2169.000000,4122.000000,4199.000000,6304.000000,11224.000000,5429.000000,3881.000000,4078.000000,3552.000000,4469.000000,4105.000000,6421.000000,4826.000000,4573.000000,3634.000000,3980.000000,3448.000000,4137.000000,3533.000000,2909.000000,5762.000000,4739.000000,3680.000000,3991.000000,3463.000000,4194.000000,3631.000000,2954.000000,3990.000000,4353.000000,3542.000000,3930.000000,3403.000000,4020.000000,3338.000000,2337.000000
1666172214.854306,0.000000,0.000000,6274.000000,4842.000000,3697.000000,3993.000000,3468.000000,4240.000000,3708.000000,2341.000000,7086.000000,5018.000000,3754.000000,4022.000000,3491.000000,4302.000000,3836.000000,2461.000000,5882.000000,4906.000000,3730.000000,4011.000000,3480.000000,4269.000000,3781.000000,3124.000000,10233.000000,5495.000000,3895.000000,4084.000000,3551.000000,4488.000000,4170.000000,6696.000000,12904.000000,5611.000000,3849.000000,3707.000000,3267.000000,4442.000000,4241.000000,6263.000000,13125.000000,5436.000000,3443.000000,2408.000000,2214.000000,3962.000000,4109.000000,6549.000000,13047.000000,5444.000000,3403.000000,2308.000000,2135.000000,3914.000000,4124.000000,4982.000000,13099.000000,5350.000000,3170.000000,2067.000000,1906.000000,3645.000000,4046.000000,4276.000000,13025.000000,5236.000000,2737.000000,2055.000000,1788.000000,2994.000000,3958.000000,2810.000000,13124.000000,5334.000000,2865.000000,1996.000000,1756.000000,3163.000000,4008.000000,2479.000000,13091.000000,5372.000000,3033.000000,2001.000000,1757.000000,3359.000000,4047.000000,2680.000000,12941.000000,5557.000000,3626.000000,2600.000000,2167.000000,4113.000000,4214.000000,4440.000000,11154.000000,5434.000000,3880.000000,4086.000000,3546.000000,4471.000000,4124.000000,5682.000000,4807.000000,4574.000000,3633.000000,3974.000000,3447.000000,4135.000000,3528.000000,3356.000000,5857.000000,4740.000000,3678.000000,3993.000000,3463.000000,4197.000000,3631.000000,3534.000000,4004.000000,4347.000000,3543.000000,3925.000000,3405.000000,4013.000000,3359.000000,2669.000000
1666172215.197970,0.000000,0.000000,6076.000000,4846.000000,3696.000000,3993.000000,3469.000000,4240.000000,3716.000000,2953.000000,7043.000000,5019.000000,3757.000000,4021.000000,3492.000000,4310.000000,3838.000000,2464.000000,6013.000000,4910.000000,3731.000000,4010.000000,3484.000000,4269.000000,3758.000000,2315.000000,10344.000000,5490.000000,3896.000000,4085.000000,3549.000000,4479.000000,4142.000000,2544.000000,13061.000000,5604.000000,3857.000000,3706.000000,3266.000000,4433.000000,4239.000000,3973.000000,13033.000000,5445.000000,3442.000000,2414.000000,2212.000000,3960.000000,4131.000000,6426.000000,13006.000000,5450.000000,3404.000000,2307.000000,2135.000000,3917.000000,4125.000000,5961.000000,13143.000000,5351.000000,3166.000000,2070.000000,1907.000000,3643.000000,4047.000000,5908.000000,13055.000000,5227.000000,2731.000000,2054.000000,1788.000000,2991.000000,3970.000000,4671.000000,12921.000000,5330.000000,2864.000000,1997.000000,1752.000000,3163.000000,4032.000000,4275.000000,12961.000000,5374.000000,3031.000000,2003.000000,1756.000000,3366.000000,4054.000000,2785.000000,13100.000000,5567.000000,3625.000000,2601.000000,2169.000000,4118.000000,4175.000000,2461.000000,11133.000000,5428.000000,3886.000000,4081.000000,3548.000000,4464.000000,4101.000000,2548.000000,4838.000000,4567.000000,3639.000000,3973.000000,3445.000000,4132.000000,3533.000000,2609.000000,5700.000000,4752.000000,3679.000000,3990.000000,3464.000000,4201.000000,3636.000000,3641.000000,3974.000000,4345.000000,3543.000000,3926.000000,3401.000000,4014.000000,3353.000000,2875.000000
1666172215.557261,0.000000,0.000000,6251.000000,4839.000000,3695.000000,3990.000000,3471.000000,4244.000000,3719.000000,3486.000000,7046.000000,5022.000000,3755.000000,4021.000000,3495.000000,4307.000000,3843.000000,3387.000000,5939.000000,4907.000000,3729.000000,4009.000000,3482.000000,4277.000000,3773.000000,2985.000000,10296.000000,5505.000000,3893.000000,4085.000000,3553.000000,4486.000000,4152.000000,2865.000000,13019.000000,5613.000000,3857.000000,3706.000000,3268.000000,4440.000000,4206.000000,2573.000000,12965.000000,5441.000000,3445.000000,2409.000000,2213.000000,3951.000000,4106.000000,2816.000000,13020.000000,5447.000000,3404.000000,2307.000000,2133.000000,3907.000000,4128.000000,4351.000000,13062.000000,5357.000000,3167.000000,2069.000000,1906.000000,3648.000000,4068.000000,8382.000000,13091.000000,5247.000000,2737.000000,2051.000000,1791.000000,2996.000000,3972.000000,6216.000000,13086.000000,5341.000000,2861.000000,1997.000000,1757.000000,3165.000000,4031.000000,7171.000000,13015.000000,5363.000000,3029.000000,2000.000000,1754.000000,3362.000000,4067.000000,5549.000000,12895.000000,5558.000000,3623.000000,2602.000000,2167.000000,4120.000000,4189.000000,4746.000000,11021.000000,5426.000000,3882.000000,4083.000000,3549.000000,4471.000000,4101.000000,2846.000000,4948.000000,4570.000000,3635.000000,3977.000000,3447.000000,4134.000000,3508.000000,2301.000000,5748.000000,4740.000000,3682.000000,3993.000000,3465.000000,4191.000000,3626.000000,2387.000000,3994.000000,4345.000000,3545.000000,3930.000000,3402.000000,4016.000000,3352.000000,2586.000000
1666172215.900786,0.000000,0.000000,6147.000000,4835.000000,3700.000000,3990.000000,3467.000000,4245.000000,3733.000000,4252.000000,7059.000000,5025.000000,3753.000000,4020.000000,3495.000000,4309.000000,3846.000000,4466.000000,5998.000000,4904.000000,3730.000000,4009.000000,3486.000000,4277.000000,3766.000000,3923.000000,10344.000000,5476.000000,3893.000000,4086.000000,3553.000000,4483.000000,4161.000000,4703.000000,12872.000000,5595.000000,3853.000000,3706.000000,3267.000000,4441.000000,4226.000000,4533.000000,13103.000000,5443.000000,3446.000000,2409.000000,2216.000000,3960.000000,4109.000000,3005.000000,13128.000000,5439.000000,3405.000000,2308.000000,2136.000000,3910.000000,4095.000000,2466.000000,13150.000000,5357.000000,3170.000000,2072.000000,1906.000000,3642.000000,4037.000000,2595.000000,12983.000000,5234.000000,2738.000000,2051.000000,1789.000000,2990.000000,3973.000000,3603.000000,13035.000000,5331.000000,2870.000000,1997.000000,1754.000000,3172.000000,4041.000000,5911.000000,12949.000000,5365.000000,3035.000000,2002.000000,1758.000000,3366.000000,4068.000000,5422.000000,13050.000000,5556.000000,3621.000000,2599.000000,2166.000000,4123.000000,4187.000000,5882.000000,11031.000000,5426.000000,3881.000000,4082.000000,3549.000000,4471.000000,4113.000000,5123.000000,4830.000000,4573.000000,3637.000000,3979.000000,3443.000000,4138.000000,3521.000000,2908.000000,5687.000000,4750.000000,3681.000000,3991.000000,3460.000000,4203.000000,3626.000000,2382.000000,4103.000000,4350.000000,3546.000000,3928.000000,3412.000000,4018.000000,3333.000000,2249.000000
1666172216.275849,0.000000,0.000000,6146.000000,4843.000000,3698.000000,3990.000000,3468.000000,4237.000000,3712.000000,2404.000000,7048.000000,5015.000000,3756.000000,4021.000000,3489.000000,4305.000000,3855.000000,3016.000000,5890.000000,4906.000000,3729.000000,4006.000000,3478.000000,4282.000000,3778.000000,3975.000000,10182.000000,5486.000000,3894.000000,4082.000000,3551.000000,4485.000000,4166.000000,5516.000000,13238.000000,5608.000000,3851.000000,3702.000000,3267.000000,4445.000000,4222.000000,5827.000000,12918.000000,5435.000000,3444.000000,2409.000000,2213.000000,3956.000000,4121.000000,5104.000000,13002.000000,5444.000000,3402.000000,2307.000000,2138.000000,3917.000000,4116.000000,4439.000000,13087.000000,5357.000000,3171.000000,2071.000000,1905.000000,3646.000000,4040.000000,3046.000000,13107.000000,5238.000000,2736.000000,2053.000000,1793.000000,2991.000000,3944.000000,2489.000000,13022.000000,5336.000000,2866.000000,1998.000000,1755.000000,3164.000000,4015.000000,2612.000000,12886.000000,5369.000000,3037.000000,2002.000000,1756.000000,3359.000000,4068.000000,3786.000000,12950.000000,5559.000000,3625.000000,2597.000000,2167.000000,4127.000000,4205.000000,6380.000000,11052.000000,5426.000000,3882.000000,4084.000000,3546.000000,4471.000000,4120.000000,5407.000000,4939.000000,4568.000000,3634.000000,3977.000000,3450.000000,4140.000000,3519.000000,3237.000000,5688.000000,4743.000000,3676.000000,3996.000000,3466.000000,4191.000000,3637.000000,3126.000000,3999.000000,4339.000000,3547.000000,3932.000000,3403.000000,4016.000000,3344.000000,2570.000000
1666172216.619515,0.000000,0.000000,6092.000000,4849.000000,3697.000000,3990.000000,3468.000000,4244.000000,3720.000000,2470.000000,7174.000000,5029.000000,3755.000000,4022.000000,3498.000000,4304.000000,3829.000000,2338.000000,5982.000000,4906.000000,3728.000000,4012.000000,3480.000000,4272.000000,3758.000000,2383.000000,10272.000000,5497.000000,3896.000000,4087.000000,3554.000000,4476.000000,4158.000000,3456.000000,12959.000000,5603.000000,3854.000000,3705.000000,3266.000000,4447.000000,4240.000000,8294.000000,12973.000000,5443.000000,3447.000000,2411.000000,2216.000000,3960.000000,4126.000000,6561.000000,13228.000000,5451.000000,3404.000000,2311.000000,2137.000000,3919.000000,4114.000000,6626.000000,13127.000000,5350.000000,3169.000000,2068.000000,1908.000000,3648.000000,4063.000000,5737.000000,13007.000000,5228.000000,2738.000000,2053.000000,1790.000000,2994.000000,3972.000000,4742.000000,13016.000000,5334.000000,2870.000000,1997.000000,1756.000000,3171.000000,4025.000000,3208.000000,13057.000000,5374.000000,3036.000000,2000.000000,1756.000000,3366.000000,4043.000000,2479.000000,13019.000000,5559.000000,3623.000000,2603.000000,2166.000000,4120.000000,4177.000000,2653.000000,11099.000000,5426.000000,3884.000000,4084.000000,3548.000000,4465.000000,4114.000000,3552.000000,4810.000000,4577.000000,3635.000000,3977.000000,3450.000000,4138.000000,3522.000000,3612.000000,5782.000000,4744.000000,3680.000000,3994.000000,3464.000000,4199.000000,3641.000000,3889.000000,4143.000000,4347.000000,3541.000000,3930.000000,3405.000000,4015.000000,3331.000000,2768.000000
1666172216.978819,0.000000,0.000000,6108.000000,4840.000000,3696.000000,3991.000000,3467.000000,4242.000000,3722.000000,3584.000000,7047.000000,5008.000000,3756.000000,4022.000000,3491.000000,4307.000000,3845.000000,3412.000000,5932.000000,4903.000000,3728.000000,4011.000000,3479.000000,4277.000000,3763.000000,2673.000000,10244.000000,5493.000000,3896.000000,4087.000000,3554.000000,4482.000000,4141.000000,2448.000000,13005.000000,5607.000000,3854.000000,3708.000000,3264.000000,4436.000000,4210.000000,2650.000000,13073.000000,5442.000000,3444.000000,2414.000000,2214.000000,3953.000000,4122.000000,3546.000000,13014.000000,5448.000000,3404.000000,2309.000000,2137.000000,3913.000000,4127.000000,6149.000000,13094.000000,5360.000000,3166.000000,2068.000000,1905.000000,3644.000000,4064.000000,6007.000000,13172.000000,5231.000000,2733.000000,2053.000000,1789.000000,2993.000000,3961.000000,5636.000000,12952.000000,5328.000000,2863.000000,1997.000000,1751.000000,3165.000000,4033.000000,5189.000000,12893.000000,5360.000000,3036.000000,2004.000000,1756.000000,3361.000000,4063.000000,4578.000000,12935.000000,5563.000000,3626.000000,2602.000000,2166.000000,4126.000000,4188.000000,3249.000000,11122.000000,5430.000000,3884.000000,4081.000000,3549.000000,4465.000000,4099.000000,2417.000000,4911.000000,4570.000000,3637.000000,3975.000000,3448.000000,4131.000000,3513.000000,2337.000000,5752.000000,4752.000000,3680.000000,3993.000000,3463.000000,4187.000000,3643.000000,2647.000000,4002.000000,4342.000000,3544.000000,3929.000000,3403.000000,4023.000000,3344.000000,3078.000000
1666172217.322482,0.000000,0.000000,6076.000000,4849.000000,3698.000000,3994.000000,3469.000000,4246.000000,3728.000000,3887.000000,7220.000000,5013.000000,3755.000000,4022.000000,3496.000000,4306.000000,3837.000000,3810.000000,5884.000000,4904.000000,3728.000000,4009.000000,3482.000000,4272.000000,3769.000000,3525.000000,10253.000000,5495.000000,3898.000000,4087.000000,3549.000000,4483.000000,4162.000000,4106.000000,13010.000000,5614.000000,3851.000000,3710.000000,3268.000000,4444.000000,4217.000000,3218.000000,13032.000000,5446.000000,3444.000000,2412.000000,2214.000000,3953.000000,4106.000000,2461.000000,13071.000000,5447.000000,3402.000000,2307.000000,2134.000000,3909.000000,4097.000000,2562.000000,13123.000000,5351.000000,3169.000000,2069.000000,1907.000000,3638.000000,4063.000000,3432.000000,12996.000000,5234.000000,2741.000000,2055.000000,1791.000000,2994.000000,3972.000000,5605.000000,13074.000000,5334.000000,2867.000000,1995.000000,1754.000000,3167.000000,4041.000000,5879.000000,13129.000000,5366.000000,3033.000000,2003.000000,1757.000000,3365.000000,4048.000000,5562.000000,12960.000000,5561.000000,3619.000000,2600.000000,2171.000000,4120.000000,4193.000000,5655.000000,11041.000000,5424.000000,3883.000000,4082.000000,3550.000000,4464.000000,4115.000000,4043.000000,4826.000000,4574.000000,3636.000000,3978.000000,3447.000000,4145.000000,3515.000000,2518.000000,5828.000000,4743.000000,3681.000000,3995.000000,3463.000000,4190.000000,3626.000000,2303.000000,4102.000000,4344.000000,3546.000000,3934.000000,3405.000000,4012.000000,3337.000000,2299.000000
1666172217.697402,0.000000,0.000000,6112.000000,4837.000000,3697.000000,3992.000000,3469.000000,4237.000000,3730.000000,2579.000000,7057.000000,5012.000000,3757.000000,4022.000000,3493.000000,4307.000000,3848.000000,4245.000000,5941.000000,4911.000000,3726.000000,4012.000000,3478.000000,4276.000000,3777.000000,4262.000000,10371.000000,5501.000000,3895.000000,4082.000000,3555.000000,4484.000000,4151.000000,5665.000000,12939.000000,5600.000000,3850.000000,3706.000000,3268.000000,4445.000000,4223.000000,5196.000000,13006.000000,5436.000000,3444.000000,2411.000000,2213.000000,3953.000000,4122.000000,4598.000000,12959.000000,5451.000000,3405.000000,2309.000000,2133.000000,3920.000000,4107.000000,3879.000000,13057.000000,5356.000000,3166.000000,2070.000000,1904.000000,3642.000000,4041.000000,2640.000000,13236.000000,5236.000000,2734.000000,2055.000000,1788.000000,2991.000000,3949.000000,2877.000000,12911.000000,5331.000000,2865.000000,1998.000000,1751.000000,3161.000000,4039.000000,3783.000000,13064.000000,5368.000000,3034.000000,2000.000000,1756.000000,3362.000000,4064.000000,9202.000000,12910.000000,5558.000000,3622.000000,2599.000000,2164.000000,4126.000000,4203.000000,9402.000000,11184.000000,5421.000000,3883.000000,4082.000000,3548.000000,4470.000000,4100.000000,6474.000000,4807.000000,4574.000000,3638.000000,3976.000000,3445.000000,4136.000000,3520.000000,3651.000000,5732.000000,4746.000000,3680.000000,3994.000000,3467.000000,4195.000000,3642.000000,3334.000000,4015.000000,4346.000000,3546.000000,3929.000000,3408.000000,4021.000000,3341.000000,2477.000000
1666172218.043922,0.000000,0.000000,6108.000000,4845.000000,3698.000000,3993.000000,3470.000000,4240.000000,3711.000000,2346.000000,7211.000000,5019.000000,3757.000000,4022.000000,3491.000000,4309.000000,3832.000000,2422.000000,5914.000000,4909.000000,3730.000000,4007.000000,3485.000000,4267.000000,3777.000000,2690.000000,10168.000000,5486.000000,3900.000000,4084.000000,3548.000000,4487.000000,4159.000000,5217.000000,13091.000000,5617.000000,3853.000000,3704.000000,3264.000000,4444.000000,4241.000000,6500.000000,13062.000000,5435.000000,3444.000000,2413.000000,2218.000000,3962.000000,4115.000000,6129.000000,13040.000000,5443.000000,3400.000000,2307.000000,2136.000000,3910.000000,4111.000000,5657.000000,13013.000000,5346.000000,3168.000000,2069.000000,1910.000000,3645.000000,4061.000000,4686.000000,13002.000000,5230.000000,2734.000000,2052.000000,1793.000000,2996.000000,3955.000000,3503.000000,12918.000000,5326.000000,2867.000000,1997.000000,1756.000000,3160.000000,4021.000000,2528.000000,13036.000000,5371.000000,3033.000000,2002.000000,1756.000000,3359.000000,4038.000000,2569.000000,13068.000000,5560.000000,3626.000000,2602.000000,2167.000000,4117.000000,4194.000000,3077.000000,11039.000000,5421.000000,3881.000000,4084.000000,3549.000000,4465.000000,4116.000000,4741.000000,4826.000000,4579.000000,3635.000000,3975.000000,3446.000000,4143.000000,3524.000000,3418.000000,5827.000000,4737.000000,3676.000000,3997.000000,3464.000000,4197.000000,3633.000000,3460.000000,4052.000000,4340.000000,3543.000000,3932.000000,3406.000000,4014.000000,3341.000000,2840.000000
1666172218.403208,0.000000,0.000000,6082.000000,4838.000000,3702.000000,3989.000000,3466.000000,4238.000000,3732.000000,3024.000000,7028.000000,5020.000000,3757.000000,4020.000000,3490.000000,4310.000000,3835.000000,2522.000000,5872.000000,4906.000000,3728.000000,4008.000000,3482.000000,4272.000000,3762.000000,2328.000000,10415.000000,5486.000000,3898.000000,4086.000000,3549.000000,4481.000000,4134.000000,2478.000000,12938.000000,5614.000000,3850.000000,3708.000000,3266.000000,4432.000000,4233.000000,3046.000000,12985.000000,5443.000000,3446.000000,2412.000000,2212.000000,3954.000000,4122.000000,4802.000000,12971.000000,5455.000000,3403.000000,2308.000000,2133.000000,3915.000000,4127.000000,6125.000000,13135.000000,5354.000000,3169.000000,2071.000000,1907.000000,3644.000000,4061.000000,5692.000000,13077.000000,5231.000000,2735.000000,2053.000000,1789.000000,2995.000000,3963.000000,5238.000000,13004.000000,5322.000000,2869.000000,1998.000000,1755.000000,3166.000000,4043.000000,4787.000000,12923.000000,5366.000000,3037.000000,2003.000000,1757.000000,3370.000000,4048.000000,3629.000000,12918.000000,5558.000000,3624.000000,2601.000000,2168.000000,4113.000000,4182.000000,2527.000000,11217.000000,5425.000000,3882.000000,4081.000000,3547.000000,4459.000000,4094.000000,2444.000000,4842.000000,4574.000000,3634.000000,3977.000000,3451.000000,4129.000000,3527.000000,2430.000000,5746.000000,4740.000000,3683.000000,3990.000000,3458.000000,4194.000000,3634.000000,3163.000000,3993.000000,4347.000000,3546.000000,3932.000000,3406.000000,4018.000000,3348.000000,3090.000000
1666172218.746884,0.000000,0.000000,6282.000000,4839.000000,3698.000000,3992.000000,3473.000000,4243.000000,3716.000000,3763.000000,7101.000000,5011.000000,3757.000000,4020.000000,3494.000000,4306.000000,3843.000000,4133.000000,5868.000000,4903.000000,3728.000000,4011.000000,3481.000000,4275.000000,3781.000000,3215.000000,10288.000000,5500.000000,3900.000000,4084.000000,3548.000000,4484.000000,4146.000000,3432.000000,12975.000000,5604.000000,3853.000000,3710.000000,3268.000000,4440.000000,4215.000000,2572.000000,13148.000000,5448.000000,3445.000000,2413.000000,2215.000000,3955.000000,4098.000000,2558.000000,13029.000000,5453.000000,3400.000000,2308.000000,2139.000000,3909.000000,4116.000000,3050.000000,13004.000000,5358.000000,3171.000000,2069.000000,1905.000000,3638.000000,4062.000000,5251.000000,13042.000000,5242.000000,2735.000000,2050.000000,1792.000000,2995.000000,3973.000000,6555.000000,13134.000000,5334.000000,2866.000000,1998.000000,1754.000000,3165.000000,4030.000000,6248.000000,13108.000000,5374.000000,3032.000000,2000.000000,1753.000000,3364.000000,4053.000000,5601.000000,13006.000000,5551.000000,3626.000000,2600.000000,2167.000000,4118.000000,4203.000000,5032.000000,11118.000000,5419.000000,3880.000000,4081.000000,3550.000000,4474.000000,4103.000000,3430.000000,4825.000000,4574.000000,3640.000000,3977.000000,3450.000000,4134.000000,3509.000000,2305.000000,5889.000000,4741.000000,3676.000000,3995.000000,3462.000000,4193.000000,3622.000000,2342.000000,4024.000000,4340.000000,3545.000000,3928.000000,3406.000000,4010.000000,3346.000000,2408.000000
1666172219.106176,0.000000,0.000000,6112.000000,4839.000000,3704.000000,3990.000000,3464.000000,4239.000000,3727.000000,3619.000000,7064.000000,5018.000000,3757.000000,4018.000000,3492.000000,4313.000000,3845.000000,4604.000000,5988.000000,4902.000000,3725.000000,4009.000000,3485.000000,4275.000000,3768.000000,3957.000000,10368.000000,5486.000000,3898.000000,4084.000000,3555.000000,4485.000000,4150.000000,5133.000000,12968.000000,5596.000000,3854.000000,3707.000000,3268.000000,4441.000000,4237.000000,5134.000000,12944.000000,5439.000000,3449.000000,2410.000000,2215.000000,3963.000000,4110.000000,3991.000000,12990.000000,5451.000000,3405.000000,2309.000000,2136.000000,3913.000000,4109.000000,2671.000000,13151.000000,5358.000000,3171.000000,2068.000000,1907.000000,3643.000000,4037.000000,2567.000000,13083.000000,5239.000000,2734.000000,2054.000000,1792.000000,2991.000000,3970.000000,3310.000000,12982.000000,5330.000000,2867.000000,1996.000000,1757.000000,3163.000000,4038.000000,5123.000000,12888.000000,5369.000000,3035.000000,2000.000000,1756.000000,3366.000000,4068.000000,6788.000000,13255.000000,5554.000000,3622.000000,2599.000000,2170.000000,4124.000000,4196.000000,5893.000000,11108.000000,5416.000000,3879.000000,4081.000000,3548.000000,4469.000000,4105.000000,5195.000000,4854.000000,4565.000000,3636.000000,3973.000000,3448.000000,4138.000000,3529.000000,2970.000000,5719.000000,4737.000000,3678.000000,3994.000000,3466.000000,4204.000000,3627.000000,2738.000000,4018.000000,4348.000000,3542.000000,3931.000000,3405.000000,4014.000000,3334.000000,2295.000000
1666172219.465501,0.000000,0.000000,6301.000000,4844.000000,3701.000000,3990.000000,3470.000000,4236.000000,3709.000000,2376.000000,7036.000000,5009.000000,3754.000000,4023.000000,3491.000000,4302.000000,3841.000000,2594.000000,5917.000000,4910.000000,3731.000000,4009.000000,3483.000000,4269.000000,3779.000000,3470.000000,10349.000000,5490.000000,3892.000000,4086.000000,3547.000000,4493.000000,4165.000000,5936.000000,12980.000000,5602.000000,3849.000000,3707.000000,3267.000000,4444.000000,4228.000000,5868.000000,13155.000000,5447.000000,3442.000000,2409.000000,2214.000000,3962.000000,4107.000000,5667.000000,12958.000000,5437.000000,3404.000000,2305.000000,2136.000000,3914.000000,4125.000000,4690.000000,13096.000000,5349.000000,3169.000000,2069.000000,1905.000000,3653.000000,4046.000000,3748.000000,12970.000000,5241.000000,2735.000000,2051.000000,1790.000000,2995.000000,3958.000000,2551.000000,13039.000000,5327.000000,2867.000000,1999.000000,1757.000000,3165.000000,4010.000000,2480.000000,12894.000000,5372.000000,3032.000000,1999.000000,1757.000000,3361.000000,4060.000000,2841.000000,13091.000000,5556.000000,3624.000000,2601.000000,2168.000000,4121.000000,4197.000000,4897.000000,11011.000000,5425.000000,3881.000000,4081.000000,3547.000000,4475.000000,4115.000000,5963.000000,4853.000000,4572.000000,3633.000000,3970.000000,3447.000000,4136.000000,3518.000000,3324.000000,5835.000000,4738.000000,3675.000000,3995.000000,3464.000000,4204.000000,3630.000000,3616.000000,3999.000000,4338.000000,3544.000000,3928.000000,3408.000000,4012.000000,3354.000000,2690.000000
1666172219.824756,0.000000,0.000000,6063.000000,4836.000000,3696.000000,3991.000000,3464.000000,4247.000000,3710.000000,2660.000000,6991.000000,5020.000000,3756.000000,4021.000000,3493.000000,4307.000000,3831.000000,2394.000000,6018.000000,4913.000000,3728.000000,4010.000000,3484.000000,4271.000000,3755.000000,2344.000000,10351.000000,5488.000000,3895.000000,4083.000000,3550.000000,4475.000000,4158.000000,2653.000000,13037.000000,5607.000000,3854.000000,3705.000000,3264.000000,4436.000000,4233.000000,4343.000000,13058.000000,5452.000000,3444.000000,2414.000000,2212.000000,3962.000000,4123.000000,6287.000000,13062.000000,5440.000000,3405.000000,2307.000000,2135.000000,3919.000000,4117.000000,5507.000000,13136.000000,5348.000000,3169.000000,2069.000000,1906.000000,3649.000000,4048.000000,5351.000000,13051.000000,5223.000000,2736.000000,2053.000000,1790.000000,2993.000000,3972.000000,4583.000000,12900.000000,5326.000000,2870.000000,1998.000000,1757.000000,3170.000000,4025.000000,4217.000000,13022.000000,5366.000000,3033.000000,2002.000000,1753.000000,3364.000000,4044.000000,2630.000000,13117.000000,5562.000000,3622.000000,2599.000000,2168.000000,4115.000000,4166.000000,2475.000000,11071.000000,5421.000000,3883.000000,4083.000000,3544.000000,4462.000000,4108.000000,2640.000000,4850.000000,4566.000000,3638.000000,3974.000000,3446.000000,4133.000000,3525.000000,2926.000000,5720.000000,4754.000000,3679.000000,3989.000000,3463.000000,4197.000000,3640.000000,3934.000000,4055.000000,4343.000000,3543.000000,3928.000000,3406.000000,4019.000000,3344.000000,2949.000000
1666172220.168432,0.000000,0.000000,6217.000000,4837.000000,3696.000000,3988.000000,3470.000000,4243.000000,3719.000000,3710.000000,6998.000000,5011.000000,3750.000000,4022.000000,3493.000000,4311.000000,3850.000000,3337.000000,5856.000000,4898.000000,3729.000000,4009.000000,3477.000000,4279.000000,3760.000000,2818.000000,10174.000000,5505.000000,3893.000000,4083.000000,3556.000000,4485.000000,4141.000000,2538.000000,13034.000000,5612.000000,3855.000000,3706.000000,3269.000000,4439.000000,4201.000000,2448.000000,13013.000000,5439.000000,3446.000000,2411.000000,2214.000000,3949.000000,4112.000000,2652.000000,13093.000000,5432.000000,3407.000000,2308.000000,2136.000000,3907.000000,4128.000000,4365.000000,13107.000000,5355.000000,3169.000000,2068.000000,1908.000000,3649.000000,4063.000000,6320.000000,13066.000000,5233.000000,2735.000000,2053.000000,1790.000000,2997.000000,3974.000000,5874.000000,13092.000000,5327.000000,2864.000000,1997.000000,1754.000000,3166.000000,4028.000000,5299.000000,12900.000000,5363.000000,3032.000000,2003.000000,1755.000000,3362.000000,4072.000000,4601.000000,12939.000000,5546.000000,3628.000000,2598.000000,2167.000000,4127.000000,4182.000000,3837.000000,11085.000000,5422.000000,3881.000000,4084.000000,3549.000000,4469.000000,4098.000000,2573.000000,4977.000000,4576.000000,3635.000000,3978.000000,3450.000000,4129.000000,3511.000000,2290.000000,5702.000000,4744.000000,3678.000000,3991.000000,3465.000000,4189.000000,3628.000000,2394.000000,3994.000000,4345.000000,3544.000000,3932.000000,3405.000000,4011.000000,3352.000000,2695.000000
1666172220.527714,0.000000,0.000000,6096.000000,4842.000000,3698.000000,3994.000000,3467.000000,4246.000000,3725.000000,4248.000000,7044.000000,5015.000000,3752.000000,4019.000000,3490.000000,4308.000000,3846.000000,3756.000000,6025.000000,4902.000000,3725.000000,4010.000000,3484.000000,4274.000000,3766.000000,3623.000000,10244.000000,5482.000000,3894.000000,4087.000000,3552.000000,4479.000000,4163.000000,4169.000000,13015.000000,5600.000000,3859.000000,3708.000000,3265.000000,4441.000000,4218.000000,4000.000000,12979.000000,5442.000000,3445.000000,2411.000000,2215.000000,3959.000000,4099.000000,2604.000000,13154.000000,5452.000000,3408.000000,2309.000000,2136.000000,3910.000000,4090.000000,2443.000000,13106.000000,5353.000000,3167.000000,2072.000000,1908.000000,3639.000000,4043.000000,2646.000000,13156.000000,5233.000000,2739.000000,2052.000000,1789.000000,2992.000000,3976.000000,4278.000000,12938.000000,5333.000000,2866.000000,1997.000000,1754.000000,3165.000000,4041.000000,6407.000000,13040.000000,5360.000000,3029.000000,2004.000000,1756.000000,3366.000000,4066.000000,5811.000000,13131.000000,5554.000000,3620.000000,2601.000000,2166.000000,4125.000000,4196.000000,6709.000000,11065.000000,5422.000000,3880.000000,4084.000000,3553.000000,4465.000000,4117.000000,4254.000000,4792.000000,4562.000000,3636.000000,3978.000000,3449.000000,4138.000000,3513.000000,2670.000000,5720.000000,4752.000000,3680.000000,3994.000000,3464.000000,4199.000000,3628.000000,2352.000000,4094.000000,4339.000000,3543.000000,3931.000000,3403.000000,4014.000000,3330.000000,2259.000000
1666172220.887008,0.000000,0.000000,6077.000000,4844.000000,3698.000000,3991.000000,3467.000000,4234.000000,3712.000000,2373.000000,7028.000000,5011.000000,3758.000000,4018.000000,3490.000000,4302.000000,3854.000000,3018.000000,5831.000000,4908.000000,3727.000000,4010.000000,3481.000000,4280.000000,3781.000000,4056.000000,10326.000000,5496.000000,3898.000000,4085.000000,3554.000000,4488.000000,4162.000000,5139.000000,13106.000000,5597.000000,3852.000000,3709.000000,3263.000000,4444.000000,4223.000000,5488.000000,13031.000000,5441.000000,3446.000000,2411.000000,2214.000000,3958.000000,4126.000000,4595.000000,12955.000000,5437.000000,3402.000000,2306.000000,2135.000000,3918.000000,4106.000000,4204.000000,13119.000000,5355.000000,3172.000000,2067.000000,1906.000000,3648.000000,4049.000000,2981.000000,13113.000000,5240.000000,2736.000000,2053.000000,1788.000000,2995.000000,3938.000000,2453.000000,12994.000000,5335.000000,2867.000000,1996.000000,1755.000000,3163.000000,4019.000000,2588.000000,12937.000000,5366.000000,3039.000000,2002.000000,1753.000000,3363.000000,4062.000000,3943.000000,13025.000000,5563.000000,3625.000000,2599.000000,2164.000000,4125.000000,4203.000000,6200.000000,11057.000000,5426.000000,3879.000000,4081.000000,3548.000000,4472.000000,4115.000000,5039.000000,4968.000000,4574.000000,3632.000000,3972.000000,3449.000000,4140.000000,3515.000000,3266.000000,5787.000000,4733.000000,3680.000000,3994.000000,3467.000000,4194.000000,3639.000000,2920.000000,3996.000000,4345.000000,3546.000000,3935.000000,3404.000000,4017.000000,3341.000000,2591.000000
1666172221.246299,0.000000,0.000000,6092.000000,4841.000000,3699.000000,3991.000000,3470.000000,4245.000000,3715.000000,2410.000000,7172.000000,5020.000000,3753.000000,4022.000000,3494.000000,4312.000000,3822.000000,2329.000000,5979.000000,4904.000000,3732.000000,4012.000000,3480.000000,4268.000000,3765.000000,2382.000000,10342.000000,5489.000000,3894.000000,4085.000000,3551.000000,4480.000000,4166.000000,3702.000000,12999.000000,5606.000000,3857.000000,3706.000000,3261.000000,4447.000000,4242.000000,6335.000000,13057.000000,5447.000000,3446.000000,2410.000000,2212.000000,3963.000000,4125.000000,5691.000000,13119.000000,5436.000000,3404.000000,2305.000000,2134.000000,3918.000000,4108.000000,5665.000000,13024.000000,5357.000000,3166.000000,2070.000000,1906.000000,3646.000000,4058.000000,4699.000000,13061.000000,5230.000000,2739.000000,2053.000000,1792.000000,2997.000000,3962.000000,4465.000000,12930.000000,5338.000000,2865.000000,2000.000000,1755.000000,3168.000000,4026.000000,2821.000000,13026.000000,5374.000000,3036.000000,2001.000000,1756.000000,3363.000000,4041.000000,2449.000000,13076.000000,5559.000000,3626.000000,2597.000000,2167.000000,4116.000000,4184.000000,2605.000000,11088.000000,5425.000000,3882.000000,4084.000000,3550.000000,4463.000000,4116.000000,3590.000000,4805.000000,4577.000000,3636.000000,3977.000000,3447.000000,4144.000000,3523.000000,3520.000000,5719.000000,4753.000000,3680.000000,3991.000000,3470.000000,4197.000000,3639.000000,3507.000000,4156.000000,4335.000000,3540.000000,3932.000000,3408.000000,4016.000000,3337.000000,2953.000000
1666172221.589936,0.000000,0.000000,6109.000000,4842.000000,3696.000000,3991.000000,3473.000000,4239.000000,3728.000000,3246.000000,7069.000000,5012.000000,3756.000000,4021.000000,3492.000000,4309.000000,3836.000000,3191.000000,5901.000000,4918.000000,3728.000000,4009.000000,3484.000000,4275.000000,3766.000000,2443.000000,10322.000000,5497.000000,3899.000000,4087.000000,3555.000000,4481.000000,4132.000000,2417.000000,12995.000000,5605.000000,3852.000000,3707.000000,3264.000000,4434.000000,4214.000000,2554.000000,12946.000000,5437.000000,3447.000000,2411.000000,2213.000000,3951.000000,4123.000000,3747.000000,12992.000000,5448.000000,3406.000000,2305.000000,2134.000000,3925.000000,4126.000000,6179.000000,13107.000000,5354.000000,3170.000000,2070.000000,1903.000000,3646.000000,4062.000000,5415.000000,13170.000000,5237.000000,2736.000000,2052.000000,1791.000000,2999.000000,3963.000000,6310.000000,12922.000000,5328.000000,2870.000000,1999.000000,1755.000000,3168.000000,4038.000000,4520.000000,12991.000000,5363.000000,3036.000000,2004.000000,1753.000000,3367.000000,4059.000000,4239.000000,12888.000000,5570.000000,3624.000000,2600.000000,2166.000000,4126.000000,4190.000000,2795.000000,11217.000000,5422.000000,3880.000000,4080.000000,3554.000000,4468.000000,4093.000000,2433.000000,4870.000000,4572.000000,3633.000000,3979.000000,3449.000000,4136.000000,3513.000000,2334.000000,5713.000000,4747.000000,3680.000000,3994.000000,3465.000000,4191.000000,3644.000000,2737.000000,4006.000000,4345.000000,3544.000000,3931.000000,3402.000000,4020.000000,3348.000000,3110.000000
1666172221.949217,0.000000,0.000000,6087.000000,4847.000000,3700.000000,3992.000000,3469.000000,4240.000000,3731.000000,3752.000000,7217.000000,5014.000000,3750.000000,4022.000000,3494.000000,4311.000000,3838.000000,3814.000000,5933.000000,4903.000000,3728.000000,4010.000000,3487.000000,4272.000000,3780.000000,3238.000000,10173.000000,5488.000000,3900.000000,4086.000000,3552.000000,4490.000000,4156.000000,3997.000000,12908.000000,5611.000000,3854.000000,3706.000000,3265.000000,4448.000000,4223.000000,2836.000000,13044.000000,5451.000000,3445.000000,2412.000000,2217.000000,3959.000000,4098.000000,2444.000000,13228.000000,5442.000000,3404.000000,2308.000000,2133.000000,3909.000000,4102.000000,2583.000000,13085.000000,5348.000000,3169.000000,2067.000000,1904.000000,3639.000000,4060.000000,3490.000000,12961.000000,5238.000000,2732.000000,2051.000000,1791.000000,2999.000000,3974.000000,6133.000000,12953.000000,5341.000000,2869.000000,1996.000000,1755.000000,3167.000000,4042.000000,5707.000000,13025.000000,5370.000000,3027.000000,2001.000000,1756.000000,3366.000000,4051.000000,5413.000000,13010.000000,5553.000000,3622.000000,2599.000000,2171.000000,4123.000000,4199.000000,4648.000000,11037.000000,5416.000000,3880.000000,4083.000000,3547.000000,4467.000000,4111.000000,3666.000000,4839.000000,4566.000000,3637.000000,3973.000000,3447.000000,4141.000000,3519.000000,2358.000000,5824.000000,4745.000000,3678.000000,3994.000000,3466.000000,4194.000000,3621.000000,2284.000000,4043.000000,4344.000000,3542.000000,3931.000000,3402.000000,4011.000000,3337.000000,2297.000000
1666172222.308482,0.000000,0.000000,6096.000000,4842.000000,3697.000000,3990.000000,3463.000000,4237.000000,3736.000000,2782.000000,7099.000000,5018.000000,3758.000000,4016.000000,3490.000000,4311.000000,3852.000000,4142.000000,5924.000000,4906.000000,3728.000000,4012.000000,3481.000000,4278.000000,3779.000000,3798.000000,10415.000000,5481.000000,3895.000000,4085.000000,3553.000000,4484.000000,4146.000000,4763.000000,12886.000000,5608.000000,3847.000000,3708.000000,3270.000000,4442.000000,4230.000000,4710.000000,13080.000000,5445.000000,3447.000000,2410.000000,2215.000000,3956.000000,4114.000000,4323.000000,13034.000000,5453.000000,3402.000000,2311.000000,2133.000000,3917.000000,4112.000000,2924.000000,13163.000000,5350.000000,3170.000000,2070.000000,1904.000000,3642.000000,4035.000000,2452.000000,13055.000000,5231.000000,2737.000000,2055.000000,1791.000000,2993.000000,3950.000000,2558.000000,13088.000000,5330.000000,2868.000000,1995.000000,1753.000000,3163.000000,4042.000000,3733.000000,12904.000000,5375.000000,3037.000000,2001.000000,1755.000000,3369.000000,4072.000000,6097.000000,12980.000000,5565.000000,3623.000000,2598.000000,2167.000000,4123.000000,4203.000000,5581.000000,11230.000000,5421.000000,3878.000000,4080.000000,3553.000000,4468.000000,4109.000000,4908.000000,4823.000000,4572.000000,3631.000000,3977.000000,3448.000000,4135.000000,3524.000000,2982.000000,5723.000000,4737.000000,3680.000000,3991.000000,3466.000000,4194.000000,3634.000000,2829.000000,4018.000000,4358.000000,3543.000000,3930.000000,3401.000000,4020.000000,3339.000000,2341.000000
1666172222.667842,0.000000,0.000000,6134.000000,4847.000000,3694.000000,3991.000000,3468.000000,4239.000000,3709.000000,2304.000000,7126.000000,5021.000000,3752.000000,4022.000000,3493.000000,4305.000000,3828.000000,2422.000000,5928.000000,4902.000000,3726.000000,4011.000000,3479.000000,4270.000000,3783.000000,2755.000000,10216.000000,5486.000000,3898.000000,4083.000000,3552.000000,4491.000000,4169.000000,5403.000000,12884.000000,5612.000000,3851.000000,3704.000000,3262.000000,4446.000000,4239.000000,6014.000000,13069.000000,5441.000000,3445.000000,2411.000000,2213.000000,3966.000000,4114.000000,6221.000000,13106.000000,5432.000000,3397.000000,2308.000000,2137.000000,3915.000000,4116.000000,5126.000000,13132.000000,5350.000000,3169.000000,2071.000000,1904.000000,3644.000000,4061.000000,4460.000000,13145.000000,5239.000000,2734.000000,2053.000000,1789.000000,2999.000000,3958.000000,3104.000000,13021.000000,5333.000000,2866.000000,1997.000000,1752.000000,3162.000000,4014.000000,2467.000000,12975.000000,5377.000000,3031.000000,2001.000000,1755.000000,3360.000000,4039.000000,2571.000000,12958.000000,5561.000000,3624.000000,2600.000000,2166.000000,4112.000000,4201.000000,3558.000000,11061.000000,5423.000000,3881.000000,4082.000000,3545.000000,4472.000000,4118.000000,5419.000000,4799.000000,4572.000000,3637.000000,3972.000000,3448.000000,4137.000000,3525.000000,3411.000000,5913.000000,4751.000000,3679.000000,3994.000000,3465.000000,4199.000000,3631.000000,3325.000000,4019.000000,4342.000000,3543.000000,3929.000000,3403.000000,4017.000000,3342.000000,2745.000000
1666172223.013527,0.000000,0.000000,6093.000000,4832.000000,3700.000000,3991.000000,3468.000000,4241.000000,3726.000000,3190.000000,7014.000000,5016.000000,3753.000000,4020.000000,3491.000000,4317.000000,3834.000000,2607.000000,5886.000000,4903.000000,3729.000000,4010.000000,3486.000000,4275.000000,3760.000000,2299.000000,10498.000000,5493.000000,3897.000000,4087.000000,3547.000000,4482.000000,4137.000000,2493.000000,13035.000000,5607.000000,3853.000000,3705.000000,3265.000000,4443.000000,4240.000000,3408.000000,12986.000000,5435.000000,3447.000000,2410.000000,2213.000000,3963.000000,4122.000000,5774.000000,13065.000000,5444.000000,3401.000000,2308.000000,2138.000000,3919.000000,4125.000000,5950.000000,13260.000000,5352.000000,3168.000000,2068.000000,1907.000000,3645.000000,4050.000000,5525.000000,13033.000000,5231.000000,2733.000000,2056.000000,1791.000000,2994.000000,3964.000000,5080.000000,12905.000000,5326.000000,2870.000000,1996.000000,1757.000000,3161.000000,4039.000000,4368.000000,12900.000000,5369.000000,3034.000000,2003.000000,1756.000000,3367.000000,4054.000000,3273.000000,13036.000000,5562.000000,3622.000000,2601.000000,2168.000000,4117.000000,4180.000000,2485.000000,11254.000000,5423.000000,3885.000000,4084.000000,3550.000000,4464.000000,4093.000000,2502.000000,4806.000000,4566.000000,3638.000000,3979.000000,3447.000000,4135.000000,3527.000000,2546.000000,5719.000000,4742.000000,3683.000000,3990.000000,3460.000000,4197.000000,3633.000000,3460.000000,3974.000000,4346.000000,3543.000000,3926.000000,3403.000000,4016.000000,3345.000000,3002.000000
1666172223.372817,0.000000,0.000000,6305.000000,4837.000000,3695.000000,3993.000000,3470.000000,4244.000000,3716.000000,3618.000000,7042.000000,5019.000000,3752.000000,4022.000000,3496.000000,4306.000000,3840.000000,3687.000000,5865.000000,4896.000000,3728.000000,4011.000000,3485.000000,4270.000000,3782.000000,3091.000000,10154.000000,5498.000000,3895.000000,4088.000000,3549.000000,4490.000000,4152.000000,3239.000000,12987.000000,5600.000000,3853.000000,3703.000000,3266.000000,4440.000000,4218.000000,2480.000000,13005.000000,5444.000000,3448.000000,2412.000000,2211.000000,3953.000000,4097.000000,2555.000000,12995.000000,5443.000000,3404.000000,2307.000000,2135.000000,3910.000000,4128.000000,3385.000000,13062.000000,5358.000000,3168.000000,2070.000000,1905.000000,3644.000000,4058.000000,5570.000000,13045.000000,5249.000000,2733.000000,2052.000000,1791.000000,2996.000000,3973.000000,6257.000000,12973.000000,5331.000000,2866.000000,2000.000000,1755.000000,3167.000000,4027.000000,5404.000000,12874.000000,5369.000000,3034.000000,2002.000000,1753.000000,3362.000000,4058.000000,4829.000000,12960.000000,5556.000000,3626.000000,2598.000000,2166.000000,4119.000000,4212.000000,4500.000000,11091.000000,5423.000000,3883.000000,4086.000000,3546.000000,4472.000000,4102.000000,3185.000000,4864.000000,4572.000000,3636.000000,3977.000000,3448.000000,4134.000000,3517.000000,2286.000000,5893.000000,4740.000000,3679.000000,3994.000000,3464.000000,4188.000000,3624.000000,2357.000000,4033.000000,4344.000000,3543.000000,3932.000000,3401.000000,4009.000000,3354.000000,2440.000000
1666172223.732104,0.000000,0.000000,6103.000000,4846.000000,3699.000000,3991.000000,3464.000000,4242.000000,3724.000000,3690.000000,7104.000000,5022.000000,3753.000000,4020.000000,3490.000000,4312.000000,3844.000000,4102.000000,6018.000000,4906.000000,3728.000000,4008.000000,3485.000000,4275.000000,3773.000000,3818.000000,10362.000000,5491.000000,3896.000000,4083.000000,3554.000000,4484.000000,4148.000000,4491.000000,12906.000000,5603.000000,3852.000000,3706.000000,3265.000000,4441.000000,4236.000000,4518.000000,13007.000000,5437.000000,3441.000000,2410.000000,2215.000000,3961.000000,4111.000000,3553.000000,12925.000000,5451.000000,3400.000000,2306.000000,2137.000000,3910.000000,4103.000000,2478.000000,13124.000000,5348.000000,3169.000000,2070.000000,1907.000000,3641.000000,4039.000000,2522.000000,13046.000000,5236.000000,2734.000000,2053.000000,1790.000000,2990.000000,3977.000000,3058.000000,12977.000000,5328.000000,2870.000000,1996.000000,1757.000000,3164.000000,4038.000000,5231.000000,12885.000000,5367.000000,3030.000000,2000.000000,1754.000000,3367.000000,4065.000000,6182.000000,13097.000000,5552.000000,3626.000000,2598.000000,2169.000000,4126.000000,4188.000000,5743.000000,11112.000000,5418.000000,3880.000000,4086.000000,3551.000000,4471.000000,4106.000000,4837.000000,4841.000000,4562.000000,3635.000000,3976.000000,3448.000000,4134.000000,3532.000000,2823.000000,5650.000000,4740.000000,3677.000000,3993.000000,3464.000000,4201.000000,3623.000000,2649.000000,4010.000000,4349.000000,3545.000000,3929.000000,3406.000000,4014.000000,3338.000000,2265.000000
1666172224.091395,0.000000,0.000000,6311.000000,4837.000000,3695.000000,3990.000000,3466.000000,4239.000000,3712.000000,2355.000000,7026.000000,5019.000000,3753.000000,4025.000000,3493.000000,4302.000000,3852.000000,2614.000000,5923.000000,4904.000000,3733.000000,4008.000000,3481.000000,4276.000000,3777.000000,3695.000000,10319.000000,5500.000000,3889.000000,4085.000000,3550.000000,4491.000000,4162.000000,5646.000000,12973.000000,5607.000000,3851.000000,3705.000000,3265.000000,4447.000000,4227.000000,5969.000000,12986.000000,5435.000000,3446.000000,2412.000000,2212.000000,3959.000000,4110.000000,5635.000000,12952.000000,5440.000000,3403.000000,2308.000000,2138.000000,3914.000000,4124.000000,4711.000000,13079.000000,5358.000000,3168.000000,2071.000000,1906.000000,3649.000000,4045.000000,3646.000000,12998.000000,5244.000000,2739.000000,2051.000000,1793.000000,2995.000000,3958.000000,2524.000000,13069.000000,5335.000000,2869.000000,1998.000000,1755.000000,3169.000000,4016.000000,2517.000000,13003.000000,5367.000000,3032.000000,2001.000000,1756.000000,3361.000000,4062.000000,3034.000000,12955.000000,5555.000000,3625.000000,2599.000000,2163.000000,4116.000000,4199.000000,4853.000000,11000.000000,5430.000000,3878.000000,4081.000000,3542.000000,4474.000000,4118.000000,5493.000000,4927.000000,4576.000000,3631.000000,3972.000000,3451.000000,4140.000000,3517.000000,3254.000000,5776.000000,4741.000000,3677.000000,3994.000000,3463.000000,4195.000000,3631.000000,3257.000000,4017.000000,4340.000000,3547.000000,3929.000000,3406.000000,4014.000000,3353.000000,2627.000000
1666172224.435475,0.000000,0.000000,6054.000000,4840.000000,3698.000000,3995.000000,3468.000000,4248.000000,3715.000000,2726.000000,7050.000000,5016.000000,3753.000000,4023.000000,3495.000000,4306.000000,3830.000000,2376.000000,5976.000000,4905.000000,3727.000000,4010.000000,3481.000000,4273.000000,3759.000000,2353.000000,10340.000000,5483.000000,3894.000000,4087.000000,3550.000000,4477.000000,4155.000000,2750.000000,12970.000000,5606.000000,3855.000000,3705.000000,3264.000000,4437.000000,4231.000000,4540.000000,12880.000000,5439.000000,3444.000000,2413.000000,2212.000000,3959.000000,4129.000000,6741.000000,13220.000000,5450.000000,3404.000000,2306.000000,2132.000000,3920.000000,4120.000000,5836.000000,13202.000000,5348.000000,3167.000000,2069.000000,1906.000000,3647.000000,4052.000000,5509.000000,13080.000000,5233.000000,2734.000000,2055.000000,1791.000000,2992.000000,3969.000000,4581.000000,12896.000000,5333.000000,2866.000000,1998.000000,1754.000000,3169.000000,4024.000000,3701.000000,12879.000000,5374.000000,3033.000000,2001.000000,1753.000000,3364.000000,4048.000000,2560.000000,13180.000000,5559.000000,3623.000000,2600.000000,2167.000000,4116.000000,4172.000000,2504.000000,11159.000000,5424.000000,3879.000000,4089.000000,3546.000000,4466.000000,4112.000000,2710.000000,4842.000000,4565.000000,3639.000000,3976.000000,3443.000000,4137.000000,3525.000000,3035.000000,5697.000000,4753.000000,3679.000000,3991.000000,3458.000000,4200.000000,3638.000000,3908.000000,4074.000000,4343.000000,3538.000000,3927.000000,3407.000000,4019.000000,3344.000000,3077.000000
1666172224.794401,0.000000,0.000000,6248.000000,4835.000000,3693.000000,3992.000000,3470.000000,4243.000000,3719.000000,3335.000000,7097.000000,5010.000000,3753.000000,4020.000000,3495.000000,4306.000000,3849.000000,3462.000000,5902.000000,4904.000000,3728.000000,4010.000000,3481.000000,4279.000000,3765.000000,2804.000000,10276.000000,5492.000000,3897.000000,4086.000000,3551.000000,4481.000000,4143.000000,2519.000000,13084.000000,5607.000000,3855.000000,3707.000000,3266.000000,4443.000000,4207.000000,2499.000000,13123.000000,5440.000000,3448.000000,2413.000000,2219.000000,3951.000000,4111.000000,2792.000000,12946.000000,5441.000000,3406.000000,2310.000000,2135.000000,3910.000000,4127.000000,4758.000000,13181.000000,5362.000000,3168.000000,2069.000000,1905.000000,3651.000000,4066.000000,6349.000000,13108.000000,5231.000000,2738.000000,2053.000000,1790.000000,2996.000000,3971.000000,5983.000000,13068.000000,5329.000000,2867.000000,1996.000000,1753.000000,3170.000000,4028.000000,5594.000000,12932.000000,5361.000000,3036.000000,2004.000000,1758.000000,3365.000000,4065.000000,4556.000000,12938.000000,5552.000000,3623.000000,2601.000000,2168.000000,4130.000000,4185.000000,3983.000000,11085.000000,5433.000000,3883.000000,4086.000000,3551.000000,4466.000000,4099.000000,2599.000000,4950.000000,4573.000000,3632.000000,3978.000000,3449.000000,4135.000000,3508.000000,2314.000000,5762.000000,4738.000000,3678.000000,3993.000000,3465.000000,4189.000000,3630.000000,2418.000000,3988.000000,4340.000000,3543.000000,3930.000000,3404.000000,4014.000000,3352.000000,2698.000000
1666172225.154030,0.000000,0.000000,6101.000000,4841.000000,3698.000000,3991.000000,3463.000000,4248.000000,3729.000000,4046.000000,7071.000000,5016.000000,3754.000000,4025.000000,3488.000000,4310.000000,3839.000000,4099.000000,5958.000000,4902.000000,3724.000000,4009.000000,3481.000000,4278.000000,3767.000000,3689.000000,10270.000000,5490.000000,3895.000000,4084.000000,3547.000000,4490.000000,4163.000000,4256.000000,12900.000000,5600.000000,3857.000000,3706.000000,3268.000000,4443.000000,4222.000000,3947.000000,12972.000000,5450.000000,3445.000000,2411.000000,2214.000000,3959.000000,4103.000000,2618.000000,13186.000000,5447.000000,3405.000000,2308.000000,2136.000000,3913.000000,4092.000000,2448.000000,13092.000000,5359.000000,3171.000000,2068.000000,1902.000000,3640.000000,4045.000000,2620.000000,12992.000000,5241.000000,2739.000000,2051.000000,1788.000000,2987.000000,3975.000000,4345.000000,12946.000000,5338.000000,2867.000000,1999.000000,1755.000000,3169.000000,4041.000000,7143.000000,12971.000000,5369.000000,3030.000000,2001.000000,1758.000000,3367.000000,4064.000000,5813.000000,13134.000000,5563.000000,3621.000000,2598.000000,2164.000000,4124.000000,4193.000000,5690.000000,11091.000000,5423.000000,3880.000000,4085.000000,3549.000000,4469.000000,4116.000000,4331.000000,4818.000000,4567.000000,3636.000000,3975.000000,3449.000000,4139.000000,3513.000000,2633.000000,5687.000000,4750.000000,3678.000000,3998.000000,3462.000000,4197.000000,3625.000000,2343.000000,4157.000000,4348.000000,3547.000000,3929.000000,3410.000000,4015.000000,3333.000000,2261.000000
1666172225.513349,0.000000,0.000000,6082.000000,4849.000000,3699.000000,3994.000000,3464.000000,4237.000000,3721.000000,2423.000000,7034.000000,5017.000000,3755.000000,4024.000000,3492.000000,4304.000000,3853.000000,3261.000000,5896.000000,4905.000000,3726.000000,4010.000000,3481.000000,4277.000000,3780.000000,4435.000000,10337.000000,5493.000000,3894.000000,4087.000000,3551.000000,4488.000000,4159.000000,5523.000000,13133.000000,5595.000000,3853.000000,3706.000000,3267.000000,4445.000000,4222.000000,5866.000000,12967.000000,5437.000000,3446.000000,2410.000000,2215.000000,3957.000000,4123.000000,4852.000000,13026.000000,5436.000000,3402.000000,2310.000000,2135.000000,3921.000000,4103.000000,3951.000000,13071.000000,5360.000000,3170.000000,2070.000000,1908.000000,3648.000000,4044.000000,2698.000000,13275.000000,5237.000000,2735.000000,2055.000000,1793.000000,2995.000000,3941.000000,2431.000000,13057.000000,5331.000000,2868.000000,1998.000000,1753.000000,3161.000000,4025.000000,2663.000000,12972.000000,5364.000000,3037.000000,2002.000000,1756.000000,3362.000000,4071.000000,4198.000000,12963.000000,5565.000000,3621.000000,2600.000000,2167.000000,4128.000000,4204.000000,9100.000000,11088.000000,5418.000000,3883.000000,4082.000000,3552.000000,4470.000000,4115.000000,5676.000000,4975.000000,4570.000000,3632.000000,3976.000000,3445.000000,4144.000000,3516.000000,3243.000000,5711.000000,4735.000000,3681.000000,3994.000000,3464.000000,4193.000000,3645.000000,3125.000000,3989.000000,4344.000000,3546.000000,3932.000000,3403.000000,4021.000000,3342.000000,2548.000000
1666172225.856931,0.000000,0.000000,6113.000000,4849.000000,3699.000000,3991.000000,3468.000000,4243.000000,3716.000000,2376.000000,7196.000000,5014.000000,3755.000000,4023.000000,3491.000000,4307.000000,3821.000000,2325.000000,5878.000000,4906.000000,3726.000000,4014.000000,3478.000000,4268.000000,3763.000000,2407.000000,10250.000000,5487.000000,3896.000000,4088.000000,3549.000000,4477.000000,4164.000000,3810.000000,12887.000000,5607.000000,3850.000000,3706.000000,3265.000000,4445.000000,4240.000000,7081.000000,13030.000000,5443.000000,3446.000000,2412.000000,2215.000000,3962.000000,4118.000000,5422.000000,13096.000000,5441.000000,3400.000000,2310.000000,2138.000000,3917.000000,4114.000000,5555.000000,13123.000000,5354.000000,3169.000000,2071.000000,1904.000000,3646.000000,4059.000000,4646.000000,13082.000000,5228.000000,2739.000000,2052.000000,1793.000000,2999.000000,3958.000000,3937.000000,13046.000000,5342.000000,2867.000000,1998.000000,1753.000000,3167.000000,4026.000000,2719.000000,13124.000000,5365.000000,3037.000000,2000.000000,1755.000000,3361.000000,4038.000000,2445.000000,13020.000000,5552.000000,3624.000000,2601.000000,2166.000000,4113.000000,4175.000000,2630.000000,11109.000000,5419.000000,3883.000000,4082.000000,3543.000000,4464.000000,4114.000000,3803.000000,4827.000000,4576.000000,3635.000000,3975.000000,3446.000000,4143.000000,3525.000000,3647.000000,5708.000000,4747.000000,3677.000000,3989.000000,3467.000000,4200.000000,3639.000000,3620.000000,4114.000000,4345.000000,3542.000000,3930.000000,3408.000000,4021.000000,3341.000000,2923.000000
1666172226.216310,0.000000,0.000000,6103.000000,4846.000000,3696.000000,3996.000000,3466.000000,4242.000000,3728.000000,3057.000000,7061.000000,5010.000000,3758.000000,4018.000000,3493.000000,4311.000000,3837.000000,3170.000000,5921.000000,4916.000000,3729.000000,4008.000000,3484.000000,4281.000000,3765.000000,2414.000000,10361.000000,5486.000000,3900.000000,4085.000000,3555.000000,4483.000000,4134.000000,2408.000000,13104.000000,5609.000000,3859.000000,3708.000000,3267.000000,4438.000000,4210.000000,2608.000000,13056.000000,5439.000000,3448.000000,2410.000000,2214.000000,3951.000000,4122.000000,3993.000000,13074.000000,5445.000000,3403.000000,2305.000000,2135.000000,3918.000000,4128.000000,6676.000000,13027.000000,5361.000000,3169.000000,2068.000000,1908.000000,3647.000000,4059.000000,6010.000000,13215.000000,5230.000000,2734.000000,2053.000000,1791.000000,2996.000000,3956.000000,5928.000000,13010.000000,5331.000000,2863.000000,1997.000000,1757.000000,3160.000000,4036.000000,4793.000000,12937.000000,5358.000000,3034.000000,2003.000000,1756.000000,3364.000000,4052.000000,4234.000000,12903.000000,5558.000000,3624.000000,2600.000000,2167.000000,4124.000000,4187.000000,2848.000000,11250.000000,5420.000000,3880.000000,4086.000000,3550.000000,4469.000000,4088.000000,2400.000000,4835.000000,4565.000000,3632.000000,3975.000000,3449.000000,4135.000000,3514.000000,2341.000000,5721.000000,4740.000000,3685.000000,3993.000000,3465.000000,4194.000000,3640.000000,2797.000000,4016.000000,4345.000000,3540.000000,3928.000000,3402.000000,4022.000000,3343.000000,3251.000000
1666172226.590892,0.000000,0.000000,6105.000000,4845.000000,3700.000000,3989.000000,3470.000000,4242.000000,3728.000000,3735.000000,7221.000000,5018.000000,3751.000000,4021.000000,3492.000000,4311.000000,3829.000000,3755.000000,5881.000000,4902.000000,3725.000000,4010.000000,3485.000000,4271.000000,3776.000000,3272.000000,10284.000000,5487.000000,3897.000000,4089.000000,3549.000000,4484.000000,4155.000000,3982.000000,12925.000000,5604.000000,3852.000000,3708.000000,3267.000000,4442.000000,4220.000000,2935.000000,13143.000000,5446.000000,3447.000000,2411.000000,2215.000000,3958.000000,4095.000000,2474.000000,13092.000000,5437.000000,3404.000000,2309.000000,2135.000000,3910.000000,4105.000000,2613.000000,13108.000000,5354.000000,3169.000000,2072.000000,1906.000000,3641.000000,4070.000000,3543.000000,13013.000000,5236.000000,2737.000000,2054.000000,1789.000000,3001.000000,3981.000000,5847.000000,13009.000000,5339.000000,2871.000000,1997.000000,1753.000000,3173.000000,4048.000000,5652.000000,13087.000000,5362.000000,3033.000000,2000.000000,1758.000000,3370.000000,4051.000000,5299.000000,13036.000000,5558.000000,3621.000000,2601.000000,2169.000000,4120.000000,4199.000000,4774.000000,11014.000000,5415.000000,3884.000000,4083.000000,3551.000000,4468.000000,4108.000000,3833.000000,4816.000000,4580.000000,3633.000000,3977.000000,3448.000000,4140.000000,3516.000000,2371.000000,5852.000000,4745.000000,3679.000000,3990.000000,3467.000000,4197.000000,3621.000000,2279.000000,4065.000000,4350.000000,3543.000000,3930.000000,3405.000000,4018.000000,3339.000000,2303.000000
1666172226.934895,0.000000,0.000000,6152.000000,4846.000000,3698.000000,3989.000000,3466.000000,4237.000000,3736.000000,2829.000000,7126.000000,5017.000000,3759.000000,4021.000000,3488.000000,4319.000000,3850.000000,4439.000000,5909.000000,4925.000000,3725.000000,4006.000000,3484.000000,4271.000000,3780.000000,3966.000000,10450.000000,5498.000000,3891.000000,4083.000000,3550.000000,4484.000000,4147.000000,5057.000000,12965.000000,5598.000000,3851.000000,3706.000000,3269.000000,4438.000000,4234.000000,4891.000000,12994.000000,5433.000000,3445.000000,2411.000000,2214.000000,3957.000000,4115.000000,4348.000000,12996.000000,5444.000000,3406.000000,2309.000000,2135.000000,3915.000000,4108.000000,2953.000000,13100.000000,5363.000000,3169.000000,2070.000000,1905.000000,3642.000000,4032.000000,2415.000000,13056.000000,5240.000000,2734.000000,2055.000000,1792.000000,2992.000000,3950.000000,2574.000000,13037.000000,5330.000000,2868.000000,1998.000000,1754.000000,3161.000000,4044.000000,3741.000000,12912.000000,5366.000000,3033.000000,2002.000000,1755.000000,3368.000000,4064.000000,6604.000000,12973.000000,5562.000000,3623.000000,2600.000000,2167.000000,4121.000000,4204.000000,5991.000000,11178.000000,5427.000000,3878.000000,4082.000000,3545.000000,4469.000000,4105.000000,5029.000000,4830.000000,4570.000000,3633.000000,3976.000000,3447.000000,4133.000000,3521.000000,2938.000000,5737.000000,4738.000000,3678.000000,3997.000000,3464.000000,4194.000000,3638.000000,2877.000000,3993.000000,4345.000000,3546.000000,3927.000000,3410.000000,4019.000000,3340.000000,2333.000000
1666172227.294063,0.000000,0.000000,6220.000000,4841.000000,3698.000000,3993.000000,3469.000000,4239.000000,3707.000000,2294.000000,7067.000000,5018.000000,3755.000000,4023.000000,3492.000000,4305.000000,3834.000000,2437.000000,5896.000000,4905.000000,3729.000000,4009.000000,3481.000000,4269.000000,3780.000000,2731.000000,10318.000000,5486.000000,3896.000000,4086.000000,3551.000000,4489.000000,4164.000000,5458.000000,12907.000000,5616.000000,3854.000000,3706.000000,3267.000000,4444.000000,4239.000000,6226.000000,13167.000000,5447.000000,3445.000000,2413.000000,2219.000000,3961.000000,4112.000000,5669.000000,12989.000000,5441.000000,3406.000000,2308.000000,2135.000000,3915.000000,4120.000000,4923.000000,13121.000000,5353.000000,3172.000000,2069.000000,1905.000000,3644.000000,4057.000000,4357.000000,13080.000000,5237.000000,2734.000000,2053.000000,1793.000000,3000.000000,3958.000000,2996.000000,13051.000000,5340.000000,2867.000000,1998.000000,1753.000000,3162.000000,4014.000000,2439.000000,12999.000000,5371.000000,3033.000000,2002.000000,1756.000000,3362.000000,4046.000000,2551.000000,12963.000000,5552.000000,3624.000000,2600.000000,2168.000000,4117.000000,4201.000000,3403.000000,11083.000000,5425.000000,3877.000000,4081.000000,3550.000000,4471.000000,4116.000000,5620.000000,4826.000000,4579.000000,3635.000000,3976.000000,3449.000000,4138.000000,3527.000000,3301.000000,5891.000000,4744.000000,3676.000000,3992.000000,3469.000000,4199.000000,3629.000000,3402.000000,4011.000000,4345.000000,3542.000000,3929.000000,3405.000000,4014.000000,3349.000000,2731.000000
1666172227.637851,0.000000,0.000000,6074.000000,4840.000000,3697.000000,3993.000000,3469.000000,4238.000000,3723.000000,3087.000000,7079.000000,5011.000000,3756.000000,4021.000000,3491.000000,4314.000000,3832.000000,2583.000000,5911.000000,4912.000000,3727.000000,4009.000000,3483.000000,4274.000000,3757.000000,2303.000000,10369.000000,5491.000000,3899.000000,4086.000000,3552.000000,4480.000000,4141.000000,2523.000000,12928.000000,5603.000000,3852.000000,3705.000000,3265.000000,4436.000000,4235.000000,3438.000000,12967.000000,5440.000000,3445.000000,2411.000000,2213.000000,3959.000000,4125.000000,5983.000000,13053.000000,5458.000000,3401.000000,2308.000000,2137.000000,3920.000000,4130.000000,6168.000000,13239.000000,5350.000000,3165.000000,2071.000000,1905.000000,3650.000000,4048.000000,5827.000000,12984.000000,5234.000000,2735.000000,2053.000000,1791.000000,2993.000000,3965.000000,4976.000000,12930.000000,5322.000000,2868.000000,1997.000000,1755.000000,3165.000000,4040.000000,4464.000000,12983.000000,5372.000000,3033.000000,2004.000000,1758.000000,3370.000000,4055.000000,3148.000000,12967.000000,5556.000000,3625.000000,2601.000000,2166.000000,4123.000000,4184.000000,2481.000000,11275.000000,5425.000000,3883.000000,4084.000000,3545.000000,4473.000000,4093.000000,2489.000000,4821.000000,4570.000000,3633.000000,3977.000000,3448.000000,4135.000000,3529.000000,2558.000000,5711.000000,4745.000000,3681.000000,3995.000000,3461.000000,4198.000000,3635.000000,3532.000000,3996.000000,4352.000000,3546.000000,3930.000000,3403.000000,4017.000000,3350.000000,2928.000000
1666172227.998854,0.000000,0.000000,6272.000000,4843.000000,3701.000000,3989.000000,3469.000000,4240.000000,3714.000000,4195.000000,7039.000000,5018.000000,3751.000000,4021.000000,3493.000000,4309.000000,3839.000000,3678.000000,5874.000000,4902.000000,3730.000000,4011.000000,3483.000000,4272.000000,3780.000000,3150.000000,10313.000000,5504.000000,3897.000000,4087.000000,3550.000000,4490.000000,4147.000000,3067.000000,13048.000000,5608.000000,3852.000000,3706.000000,3267.000000,4439.000000,4213.000000,2496.000000,13125.000000,5445.000000,3448.000000,2411.000000,2213.000000,3955.000000,4100.000000,2525.000000,12985.000000,5442.000000,3404.000000,2309.000000,2137.000000,3913.000000,4130.000000,3183.000000,13122.000000,5356.000000,3171.000000,2066.000000,1906.000000,3649.000000,4060.000000,6805.000000,13021.000000,5243.000000,2739.000000,2056.000000,1791.000000,2997.000000,3974.000000,6181.000000,13132.000000,5337.000000,2868.000000,2000.000000,1757.000000,3167.000000,4024.000000,5713.000000,12953.000000,5360.000000,3031.000000,2004.000000,1758.000000,3364.000000,4057.000000,4824.000000,12994.000000,5558.000000,3623.000000,2601.000000,2167.000000,4120.000000,4199.000000,4330.000000,11012.000000,5425.000000,3883.000000,4082.000000,3548.000000,4474.000000,4106.000000,2864.000000,4890.000000,4573.000000,3636.000000,3980.000000,3450.000000,4137.000000,3514.000000,2276.000000,5890.000000,4740.000000,3678.000000,3994.000000,3461.000000,4191.000000,3624.000000,2340.000000,4003.000000,4343.000000,3545.000000,3930.000000,3407.000000,4010.000000,3351.000000,2435.000000
1666172228.358865,0.000000,0.000000,6125.000000,4842.000000,3701.000000,3990.000000,3464.000000,4246.000000,3727.000000,3725.000000,7075.000000,5025.000000,3752.000000,4018.000000,3494.000000,4314.000000,3847.000000,3883.000000,6101.000000,4904.000000,3726.000000,4009.000000,3484.000000,4278.000000,3768.000000,3561.000000,10210.000000,5480.000000,3892.000000,4087.000000,3554.000000,4486.000000,4153.000000,4556.000000,12995.000000,5601.000000,3855.000000,3709.000000,3268.000000,4441.000000,4240.000000,4591.000000,13034.000000,5441.000000,3446.000000,2412.000000,2213.000000,3965.000000,4112.000000,3334.000000,12990.000000,5447.000000,3404.000000,2308.000000,2138.000000,3911.000000,4105.000000,2493.000000,13210.000000,5356.000000,3170.000000,2068.000000,1907.000000,3644.000000,4033.000000,2557.000000,13069.000000,5239.000000,2734.000000,2054.000000,1789.000000,2993.000000,3971.000000,3299.000000,13064.000000,5331.000000,2869.000000,1999.000000,1754.000000,3164.000000,4039.000000,5691.000000,12937.000000,5373.000000,3035.000000,2002.000000,1757.000000,3364.000000,4064.000000,6217.000000,13088.000000,5549.000000,3622.000000,2597.000000,2168.000000,4124.000000,4192.000000,6000.000000,10997.000000,5422.000000,3878.000000,4083.000000,3546.000000,4468.000000,4104.000000,4950.000000,4813.000000,4566.000000,3635.000000,3974.000000,3448.000000,4133.000000,3530.000000,2871.000000,5742.000000,4739.000000,3680.000000,3997.000000,3461.000000,4206.000000,3631.000000,2575.000000,4017.000000,4349.000000,3547.000000,3932.000000,3407.000000,4015.000000,3334.000000,2267.000000
1666172228.717823,0.000000,0.000000,6254.000000,4848.000000,3700.000000,3992.000000,3465.000000,4242.000000,3710.000000,2371.000000,7114.000000,5022.000000,3753.000000,4017.000000,3495.000000,4303.000000,3850.000000,2785.000000,5890.000000,4904.000000,3729.000000,4011.000000,3481.000000,4275.000000,3776.000000,3614.000000,10184.000000,5497.000000,3896.000000,4081.000000,3551.000000,4490.000000,4160.000000,5841.000000,13111.000000,5604.000000,3852.000000,3705.000000,3270.000000,4442.000000,4225.000000,5777.000000,13028.000000,5441.000000,3444.000000,2412.000000,2215.000000,3959.000000,4115.000000,5378.000000,13080.000000,5437.000000,3400.000000,2305.000000,2134.000000,3917.000000,4123.000000,4879.000000,13008.000000,5362.000000,3172.000000,2068.000000,1909.000000,3650.000000,4053.000000,3574.000000,13101.000000,5232.000000,2737.000000,2058.000000,1792.000000,2990.000000,3950.000000,2513.000000,13059.000000,5326.000000,2864.000000,1997.000000,1756.000000,3160.000000,4014.000000,2541.000000,13030.000000,5369.000000,3033.000000,2004.000000,1756.000000,3362.000000,4061.000000,3210.000000,12916.000000,5561.000000,3627.000000,2598.000000,2165.000000,4122.000000,4196.000000,5068.000000,11049.000000,5435.000000,3884.000000,4084.000000,3547.000000,4475.000000,4112.000000,4812.000000,5014.000000,4566.000000,3636.000000,3972.000000,3453.000000,4140.000000,3515.000000,3024.000000,5722.000000,4744.000000,3675.000000,3995.000000,3464.000000,4194.000000,3628.000000,3038.000000,3992.000000,4343.000000,3542.000000,3930.000000,3405.000000,4016.000000,3353.000000,2608.000000
1666172229.061698,0.000000,0.000000,6081.000000,4841.000000,3694.000000,3991.000000,3466.000000,4248.000000,3714.000000,2577.000000,7069.000000,5019.000000,3757.000000,4022.000000,3497.000000,4306.000000,3827.000000,2359.000000,6089.000000,4904.000000,3730.000000,4011.000000,3480.000000,4267.000000,3758.000000,2339.000000,10334.000000,5494.000000,3896.000000,4086.000000,3549.000000,4476.000000,4164.000000,3059.000000,12954.000000,5606.000000,3855.000000,3707.000000,3260.000000,4443.000000,4232.000000,5236.000000,12965.000000,5447.000000,3444.000000,2409.000000,2215.000000,3963.000000,4134.000000,6069.000000,13190.000000,5443.000000,3402.000000,2308.000000,2133.000000,3921.000000,4118.000000,5956.000000,13167.000000,5356.000000,3166.000000,2069.000000,1905.000000,3645.000000,4049.000000,4905.000000,13075.000000,5221.000000,2738.000000,2055.000000,1789.000000,2996.000000,3973.000000,4310.000000,12928.000000,5326.000000,2872.000000,1997.000000,1753.000000,3171.000000,4030.000000,3377.000000,13005.000000,5366.000000,3037.000000,1999.000000,1758.000000,3363.000000,4044.000000,2559.000000,13140.000000,5556.000000,3624.000000,2600.000000,2167.000000,4118.000000,4179.000000,2605.000000,11077.000000,5422.000000,3885.000000,4083.000000,3548.000000,4466.000000,4117.000000,3150.000000,4841.000000,4571.000000,3639.000000,3976.000000,3446.000000,4138.000000,3524.000000,3287.000000,5716.000000,4747.000000,3681.000000,3992.000000,3461.000000,4197.000000,3635.000000,3702.000000,4152.000000,4350.000000,3543.000000,3930.000000,3405.000000,4019.000000,3342.000000,3015.000000
1666172229.420783,0.000000,0.000000,6152.000000,4842.000000,3698.000000,3990.000000,3469.000000,4244.000000,3717.000000,3433.000000,7031.000000,5021.000000,3754.000000,4026.000000,3494.000000,4309.000000,3853.000000,3373.000000,5934.000000,4911.000000,3731.000000,4016.000000,3482.000000,4280.000000,3767.000000,2715.000000,10338.000000,5500.000000,3895.000000,4090.000000,3550.000000,4483.000000,4146.000000,2505.000000,13068.000000,5605.000000,3853.000000,3707.000000,3266.000000,4439.000000,4212.000000,2563.000000,13064.000000,5438.000000,3446.000000,2413.000000,2211.000000,3952.000000,4120.000000,3059.000000,13006.000000,5439.000000,3404.000000,2308.000000,2132.000000,3912.000000,4124.000000,5154.000000,13117.000000,5364.000000,3166.000000,2066.000000,1906.000000,3646.000000,4062.000000,6212.000000,13158.000000,5239.000000,2734.000000,2054.000000,1790.000000,2995.000000,3964.000000,5889.000000,12929.000000,5331.000000,2867.000000,2000.000000,1753.000000,3167.000000,4029.000000,5562.000000,12875.000000,5368.000000,3033.000000,2002.000000,1754.000000,3364.000000,4069.000000,4673.000000,12937.000000,5552.000000,3621.000000,2600.000000,2165.000000,4128.000000,4192.000000,3604.000000,11045.000000,5425.000000,3881.000000,4086.000000,3550.000000,4468.000000,4101.000000,2444.000000,4971.000000,4565.000000,3637.000000,3977.000000,3445.000000,4137.000000,3512.000000,2310.000000,5715.000000,4742.000000,3676.000000,3995.000000,3463.000000,4192.000000,3638.000000,2478.000000,4019.000000,4336.000000,3547.000000,3929.000000,3403.000000,4016.000000,3345.000000,2776.000000
1666172229.780412,0.000000,0.000000,6078.000000,4857.000000,3697.000000,3995.000000,3462.000000,4245.000000,3731.000000,4008.000000,7222.000000,5010.000000,3754.000000,4019.000000,3492.000000,4310.000000,3836.000000,3763.000000,5892.000000,4900.000000,3726.000000,4011.000000,3487.000000,4275.000000,3766.000000,3423.000000,10224.000000,5489.000000,3898.000000,4083.000000,3553.000000,4482.000000,4166.000000,3786.000000,12879.000000,5602.000000,3851.000000,3710.000000,3267.000000,4445.000000,4217.000000,3583.000000,12948.000000,5441.000000,3446.000000,2412.000000,2213.000000,3954.000000,4105.000000,2546.000000,13146.000000,5447.000000,3403.000000,2307.000000,2138.000000,3914.000000,4096.000000,2501.000000,13018.000000,5357.000000,3172.000000,2068.000000,1904.000000,3642.000000,4063.000000,3165.000000,13086.000000,5238.000000,2741.000000,2052.000000,1788.000000,2997.000000,3972.000000,4985.000000,12935.000000,5347.000000,2869.000000,1999.000000,1753.000000,3172.000000,4045.000000,6164.000000,13087.000000,5367.000000,3035.000000,2004.000000,1755.000000,3370.000000,4055.000000,5892.000000,12985.000000,5555.000000,3623.000000,2600.000000,2167.000000,4123.000000,4193.000000,5811.000000,11067.000000,5414.000000,3879.000000,4084.000000,3547.000000,4468.000000,4118.000000,4408.000000,4837.000000,4571.000000,3637.000000,3976.000000,3446.000000,4142.000000,3514.000000,2595.000000,5710.000000,4743.000000,3682.000000,3996.000000,3465.000000,4193.000000,3624.000000,2330.000000,4128.000000,4342.000000,3543.000000,3933.000000,3406.000000,4017.000000,3338.000000,2284.000000
1666172230.139703,0.000000,0.000000,6166.000000,4847.000000,3699.000000,3992.000000,3467.000000,4235.000000,3727.000000,2528.000000,7073.000000,5026.000000,3757.000000,4020.000000,3487.000000,4305.000000,3848.000000,3384.000000,5917.000000,4908.000000,3727.000000,4009.000000,3481.000000,4280.000000,3777.000000,4131.000000,10361.000000,5500.000000,3895.000000,4084.000000,3556.000000,4488.000000,4157.000000,5186.000000,12893.000000,5595.000000,3855.000000,3710.000000,3270.000000,4443.000000,4225.000000,5439.000000,13102.000000,5442.000000,3449.000000,2412.000000,2213.000000,3952.000000,4131.000000,4681.000000,12994.000000,5433.000000,3403.000000,2308.000000,2135.000000,3918.000000,4110.000000,3755.000000,13155.000000,5357.000000,3171.000000,2069.000000,1906.000000,3643.000000,4039.000000,2560.000000,13164.000000,5231.000000,2735.000000,2051.000000,1792.000000,2995.000000,3947.000000,2563.000000,12996.000000,5336.000000,2871.000000,1998.000000,1755.000000,3160.000000,4031.000000,2999.000000,12985.000000,5374.000000,3036.000000,2000.000000,1758.000000,3362.000000,4065.000000,5018.000000,12928.000000,5565.000000,3621.000000,2596.000000,2166.000000,4124.000000,4199.000000,6314.000000,11098.000000,5415.000000,3880.000000,4081.000000,3550.000000,4470.000000,4109.000000,4970.000000,4867.000000,4568.000000,3631.000000,3981.000000,3447.000000,4142.000000,3518.000000,3061.000000,5685.000000,4738.000000,3678.000000,3995.000000,3465.000000,4190.000000,3644.000000,2846.000000,4016.000000,4339.000000,3546.000000,3932.000000,3406.000000,4021.000000,3338.000000,2431.000000
1666172230.483289,0.000000,0.000000,6068.000000,4846.000000,3697.000000,3991.000000,3470.000000,4237.000000,3711.000000,2314.000000,7218.000000,5014.000000,3757.000000,4020.000000,3491.000000,4307.000000,3825.000000,2362.000000,5887.000000,4902.000000,3727.000000,4012.000000,3478.000000,4271.000000,3778.000000,2455.000000,10233.000000,5487.000000,3900.000000,4088.000000,3551.000000,4480.000000,4168.000000,4273.000000,13083.000000,5608.000000,3852.000000,3707.000000,3267.000000,4446.000000,4236.000000,5843.000000,12943.000000,5440.000000,3444.000000,2409.000000,2214.000000,3960.000000,4118.000000,5414.000000,13186.000000,5445.000000,3404.000000,2308.000000,2136.000000,3921.000000,4109.000000,5692.000000,13038.000000,5344.000000,3170.000000,2069.000000,1908.000000,3645.000000,4067.000000,4778.000000,12995.000000,5239.000000,2738.000000,2055.000000,1790.000000,2998.000000,3958.000000,4077.000000,13000.000000,5336.000000,2870.000000,1996.000000,1756.000000,3167.000000,4017.000000,2639.000000,12998.000000,5373.000000,3038.000000,2000.000000,1756.000000,3367.000000,4035.000000,2493.000000,12984.000000,5555.000000,3621.000000,2603.000000,2168.000000,4112.000000,4194.000000,2852.000000,11078.000000,5415.000000,3889.000000,4085.000000,3547.000000,4464.000000,4119.000000,4876.000000,4835.000000,4574.000000,3636.000000,3978.000000,3447.000000,4140.000000,3523.000000,3783.000000,5798.000000,4739.000000,3676.000000,3994.000000,3466.000000,4195.000000,3635.000000,3536.000000,4040.000000,4342.000000,3539.000000,3929.000000,3404.000000,4015.000000,3339.000000,2972.000000
1666172230.842662,0.000000,0.000000,6126.000000,4834.000000,3696.000000,3995.000000,3469.000000,4238.000000,3736.000000,3121.000000,7013.000000,5011.000000,3753.000000,4025.000000,3493.000000,4308.000000,3835.000000,2934.000000,5884.000000,4910.000000,3727.000000,4011.000000,3483.000000,4272.000000,3763.000000,2347.000000,10431.000000,5484.000000,3899.000000,4087.000000,3551.000000,4482.000000,4134.000000,2501.000000,12958.000000,5610.000000,3856.000000,3708.000000,3267.000000,4434.000000,4227.000000,2825.000000,12997.000000,5440.000000,3449.000000,2411.000000,2215.000000,3955.000000,4122.000000,4419.000000,13091.000000,5447.000000,3402.000000,2308.000000,2135.000000,3920.000000,4130.000000,6273.000000,13097.000000,5348.000000,3167.000000,2070.000000,1905.000000,3647.000000,4063.000000,5635.000000,13161.000000,5234.000000,2735.000000,2054.000000,1790.000000,2993.000000,3964.000000,5511.000000,13001.000000,5334.000000,2869.000000,1999.000000,1755.000000,3165.000000,4046.000000,4789.000000,12937.000000,5358.000000,3034.000000,2003.000000,1755.000000,3367.000000,4050.000000,4056.000000,12993.000000,5568.000000,3621.000000,2600.000000,2168.000000,4118.000000,4184.000000,2722.000000,11208.000000,5433.000000,3880.000000,4084.000000,3547.000000,4465.000000,4089.000000,2469.000000,4843.000000,4569.000000,3635.000000,3978.000000,3447.000000,4131.000000,3522.000000,2365.000000,5751.000000,4737.000000,3678.000000,3993.000000,3462.000000,4192.000000,3639.000000,2938.000000,3994.000000,4351.000000,3544.000000,3930.000000,3401.000000,4019.000000,3346.000000,3022.000000
1666172231.201948,0.000000,0.000000,6170.000000,4840.000000,3700.000000,3991.000000,3470.000000,4243.000000,3725.000000,3345.000000,7170.000000,5017.000000,3753.000000,4023.000000,3492.000000,4312.000000,3836.000000,3516.000000,5886.000000,4908.000000,3730.000000,4011.000000,3485.000000,4270.000000,3781.000000,3197.000000,10297.000000,5477.000000,3897.000000,4086.000000,3550.000000,4486.000000,4143.000000,3521.000000,12924.000000,5617.000000,3853.000000,3710.000000,3268.000000,4443.000000,4218.000000,2570.000000,13213.000000,5445.000000,3447.000000,2411.000000,2217.000000,3956.000000,4093.000000,2483.000000,13022.000000,5440.000000,3405.000000,2308.000000,2138.000000,3906.000000,4115.000000,2717.000000,13120.000000,5354.000000,3171.000000,2070.000000,1905.000000,3643.000000,4061.000000,4489.000000,13054.000000,5238.000000,2738.000000,2052.000000,1789.000000,2999.000000,3977.000000,5931.000000,12957.000000,5327.000000,2866.000000,1998.000000,1754.000000,3166.000000,4029.000000,5579.000000,13002.000000,5362.000000,3033.000000,2001.000000,1755.000000,3367.000000,4052.000000,5670.000000,12940.000000,5557.000000,3623.000000,2601.000000,2166.000000,4120.000000,4198.000000,4657.000000,11174.000000,5420.000000,3884.000000,4083.000000,3547.000000,4473.000000,4101.000000,3491.000000,4785.000000,4575.000000,3636.000000,3976.000000,3446.000000,4132.000000,3513.000000,2312.000000,5850.000000,4738.000000,3680.000000,3991.000000,3462.000000,4194.000000,3623.000000,2335.000000,4015.000000,4337.000000,3545.000000,3933.000000,3401.000000,4013.000000,3343.000000,2354.000000
1666172231.561245,0.000000,0.000000,6133.000000,4839.000000,3703.000000,3991.000000,3465.000000,4239.000000,3727.000000,3303.000000,7054.000000,5019.000000,3754.000000,4024.000000,3492.000000,4312.000000,3845.000000,4532.000000,5953.000000,4914.000000,3728.000000,4014.000000,3480.000000,4272.000000,3771.000000,3689.000000,10289.000000,5476.000000,3892.000000,4086.000000,3555.000000,4485.000000,4153.000000,4984.000000,12922.000000,5602.000000,3853.000000,3706.000000,3268.000000,4436.000000,4237.000000,4450.000000,12968.000000,5439.000000,3448.000000,2412.000000,2215.000000,3963.000000,4106.000000,4026.000000,13080.000000,5455.000000,3403.000000,2307.000000,2136.000000,3916.000000,4105.000000,2638.000000,13251.000000,5369.000000,3169.000000,2071.000000,1907.000000,3649.000000,4031.000000,2520.000000,13083.000000,5239.000000,2739.000000,2051.000000,1792.000000,2991.000000,3964.000000,2748.000000,13014.000000,5325.000000,2873.000000,1998.000000,1753.000000,3164.000000,4039.000000,4728.000000,13097.000000,5366.000000,3033.000000,2000.000000,1753.000000,3371.000000,4069.000000,7650.000000,13114.000000,5554.000000,3624.000000,2596.000000,2169.000000,4124.000000,4194.000000,5834.000000,11150.000000,5422.000000,3877.000000,4082.000000,3551.000000,4470.000000,4106.000000,5161.000000,4853.000000,4566.000000,3635.000000,3976.000000,3449.000000,4137.000000,3532.000000,2866.000000,5693.000000,4736.000000,3678.000000,3996.000000,3464.000000,4201.000000,3626.000000,2651.000000,4021.000000,4356.000000,3548.000000,3931.000000,3406.000000,4014.000000,3339.000000,2267.000000
1666172231.904997,0.000000,0.000000,6212.000000,4852.000000,3699.000000,3994.000000,3467.000000,4240.000000,3709.000000,2328.000000,7131.000000,5021.000000,3754.000000,4023.000000,3493.000000,4303.000000,3843.000000,2453.000000,5880.000000,4902.000000,3726.000000,4008.000000,3481.000000,4272.000000,3775.000000,3079.000000,10288.000000,5498.000000,3896.000000,4084.000000,3548.000000,4489.000000,4165.000000,5551.000000,13098.000000,5605.000000,3849.000000,3705.000000,3268.000000,4446.000000,4233.000000,5394.000000,13054.000000,5434.000000,3442.000000,2412.000000,2214.000000,3961.000000,4112.000000,5200.000000,12961.000000,5441.000000,3401.000000,2309.000000,2135.000000,3909.000000,4137.000000,4287.000000,13047.000000,5345.000000,3168.000000,2070.000000,1908.000000,3648.000000,4044.000000,3585.000000,12998.000000,5238.000000,2738.000000,2055.000000,1789.000000,2998.000000,3955.000000,2631.000000,13134.000000,5332.000000,2866.000000,1996.000000,1752.000000,3164.000000,4010.000000,2488.000000,13005.000000,5368.000000,3036.000000,2001.000000,1755.000000,3362.000000,4056.000000,2813.000000,13068.000000,5553.000000,3627.000000,2598.000000,2163.000000,4116.000000,4205.000000,4673.000000,11073.000000,5423.000000,3884.000000,4084.000000,3543.000000,4479.000000,4117.000000,5606.000000,4941.000000,4567.000000,3634.000000,3971.000000,3451.000000,4137.000000,3527.000000,3329.000000,5825.000000,4744.000000,3677.000000,3997.000000,3466.000000,4199.000000,3629.000000,3666.000000,4025.000000,4337.000000,3542.000000,3932.000000,3405.000000,4016.000000,3352.000000,2691.000000
1666172232.264200,0.000000,0.000000,6120.000000,4837.000000,3699.000000,3993.000000,3469.000000,4242.000000,3715.000000,2776.000000,7033.000000,5015.000000,3758.000000,4023.000000,3496.000000,4307.000000,3833.000000,2383.000000,6069.000000,4909.000000,3728.000000,4010.000000,3483.000000,4272.000000,3754.000000,2350.000000,10290.000000,5490.000000,3896.000000,4087.000000,3550.000000,4477.000000,4153.000000,2669.000000,13045.000000,5600.000000,3853.000000,3708.000000,3263.000000,4441.000000,4239.000000,4361.000000,13023.000000,5447.000000,3448.000000,2412.000000,2214.000000,3962.000000,4128.000000,6523.000000,13068.000000,5441.000000,3405.000000,2308.000000,2137.000000,3919.000000,4118.000000,6798.000000,13141.000000,5354.000000,3169.000000,2072.000000,1907.000000,3651.000000,4051.000000,5934.000000,12985.000000,5233.000000,2740.000000,2054.000000,1788.000000,2997.000000,3978.000000,4850.000000,12962.000000,5336.000000,2873.000000,1998.000000,1756.000000,3173.000000,4023.000000,3828.000000,12905.000000,5366.000000,3037.000000,2002.000000,1754.000000,3364.000000,4043.000000,2624.000000,13077.000000,5558.000000,3623.000000,2601.000000,2166.000000,4117.000000,4172.000000,2524.000000,11091.000000,5418.000000,3884.000000,4080.000000,3549.000000,4460.000000,4102.000000,2636.000000,4840.000000,4573.000000,3636.000000,3976.000000,3445.000000,4136.000000,3532.000000,2830.000000,5739.000000,4743.000000,3681.000000,3991.000000,3463.000000,4198.000000,3638.000000,3636.000000,4070.000000,4346.000000,3543.000000,3932.000000,3408.000000,4017.000000,3351.000000,2885.000000
1666172232.623487,0.000000,0.000000,6218.000000,4840.000000,3698.000000,3993.000000,3471.000000,4245.000000,3719.000000,3417.000000,7048.000000,5007.000000,3756.000000,4025.000000,3493.000000,4306.000000,3848.000000,3219.000000,5890.000000,4915.000000,3731.000000,4010.000000,3486.000000,4275.000000,3767.000000,2816.000000,10335.000000,5489.000000,3899.000000,4086.000000,3553.000000,4487.000000,4145.000000,2566.000000,13013.000000,5602.000000,3856.000000,3706.000000,3269.000000,4436.000000,4202.000000,2491.000000,13077.000000,5444.000000,3441.000000,2415.000000,2215.000000,3950.000000,4111.000000,2711.000000,12982.000000,5439.000000,3406.000000,2307.000000,2133.000000,3908.000000,4128.000000,4211.000000,13057.000000,5353.000000,3167.000000,2070.000000,1904.000000,3647.000000,4063.000000,6161.000000,13083.000000,5229.000000,2734.000000,2051.000000,1790.000000,2996.000000,3970.000000,5293.000000,13102.000000,5328.000000,2866.000000,1996.000000,1755.000000,3169.000000,4027.000000,5359.000000,12926.000000,5363.000000,3033.000000,1999.000000,1756.000000,3364.000000,4070.000000,4674.000000,12935.000000,5550.000000,3625.000000,2600.000000,2168.000000,4126.000000,4184.000000,4168.000000,11129.000000,5427.000000,3884.000000,4085.000000,3549.000000,4465.000000,4099.000000,2637.000000,4970.000000,4567.000000,3635.000000,3976.000000,3448.000000,4136.000000,3510.000000,2298.000000,5696.000000,4744.000000,3678.000000,3991.000000,3467.000000,4192.000000,3632.000000,2414.000000,4011.000000,4341.000000,3547.000000,3929.000000,3404.000000,4016.000000,3350.000000,2741.000000
1666172232.985060,0.000000,0.000000,6069.000000,4841.000000,3697.000000,3990.000000,3466.000000,4245.000000,3727.000000,4279.000000,7083.000000,5016.000000,3751.000000,4021.000000,3495.000000,4312.000000,3843.000000,4169.000000,6046.000000,4906.000000,3729.000000,4012.000000,3486.000000,4280.000000,3768.000000,3748.000000,10338.000000,5481.000000,3895.000000,4089.000000,3551.000000,4484.000000,4168.000000,4276.000000,12891.000000,5594.000000,3859.000000,3708.000000,3269.000000,4444.000000,4219.000000,4224.000000,12979.000000,5446.000000,3446.000000,2414.000000,2214.000000,3959.000000,4107.000000,2677.000000,13123.000000,5443.000000,3403.000000,2306.000000,2135.000000,3915.000000,4097.000000,2558.000000,13054.000000,5354.000000,3172.000000,2070.000000,1902.000000,3644.000000,4042.000000,2745.000000,13060.000000,5237.000000,2736.000000,2053.000000,1792.000000,2993.000000,3976.000000,4375.000000,12970.000000,5328.000000,2867.000000,2000.000000,1758.000000,3169.000000,4040.000000,6341.000000,12954.000000,5372.000000,3033.000000,2002.000000,1756.000000,3368.000000,4068.000000,5830.000000,13017.000000,5560.000000,3621.000000,2597.000000,2166.000000,4121.000000,4187.000000,5597.000000,11075.000000,5412.000000,3879.000000,4080.000000,3552.000000,4466.000000,4122.000000,4212.000000,4850.000000,4569.000000,3632.000000,3980.000000,3446.000000,4143.000000,3511.000000,2660.000000,5695.000000,4746.000000,3681.000000,3997.000000,3467.000000,4199.000000,3625.000000,2371.000000,4133.000000,4344.000000,3543.000000,3933.000000,3410.000000,4016.000000,3337.000000,2269.000000
1666172233.328945,0.000000,0.000000,6114.000000,4842.000000,3697.000000,3989.000000,3468.000000,4235.000000,3716.000000,2394.000000,7074.000000,5012.000000,3759.000000,4023.000000,3488.000000,4300.000000,3851.000000,2931.000000,5855.000000,4911.000000,3726.000000,4008.000000,3477.000000,4280.000000,3777.000000,4017.000000,10272.000000,5498.000000,3892.000000,4087.000000,3550.000000,4490.000000,4158.000000,4757.000000,13081.000000,5600.000000,3851.000000,3708.000000,3268.000000,4443.000000,4220.000000,4989.000000,12991.000000,5441.000000,3442.000000,2413.000000,2215.000000,3958.000000,4125.000000,4675.000000,12941.000000,5439.000000,3405.000000,2306.000000,2136.000000,3914.000000,4105.000000,4017.000000,13123.000000,5357.000000,3168.000000,2071.000000,1907.000000,3644.000000,4045.000000,2652.000000,13150.000000,5236.000000,2738.000000,2053.000000,1792.000000,2993.000000,3944.000000,2429.000000,12941.000000,5347.000000,2867.000000,1998.000000,1754.000000,3163.000000,4023.000000,2636.000000,13024.000000,5364.000000,3036.000000,2003.000000,1758.000000,3357.000000,4064.000000,4186.000000,13017.000000,5555.000000,3622.000000,2604.000000,2164.000000,4124.000000,4201.000000,7256.000000,11189.000000,5425.000000,3884.000000,4084.000000,3550.000000,4474.000000,4116.000000,5091.000000,4993.000000,4574.000000,3632.000000,3976.000000,3449.000000,4142.000000,3515.000000,3170.000000,5719.000000,4744.000000,3675.000000,3994.000000,3466.000000,4194.000000,3638.000000,3042.000000,3990.000000,4339.000000,3541.000000,3930.000000,3408.000000,4019.000000,3335.000000,2540.000000
1666172233.688314,0.000000,0.000000,6064.000000,4844.000000,3696.000000,3995.000000,3470.000000,4239.000000,3715.000000,2389.000000,7196.000000,5012.000000,3757.000000,4026.000000,3494.000000,4307.000000,3822.000000,2373.000000,5878.000000,4908.000000,3728.000000,4010.000000,3486.000000,4265.000000,3764.000000,2444.000000,10305.000000,5485.000000,3896.000000,4085.000000,3550.000000,4481.000000,4162.000000,4097.000000,12921.000000,5601.000000,3851.000000,3707.000000,3268.000000,4447.000000,4235.000000,6431.000000,13135.000000,5442.000000,3446.000000,2411.000000,2216.000000,3967.000000,4122.000000,5704.000000,13205.000000,5448.000000,3404.000000,2308.000000,2139.000000,3921.000000,4112.000000,5706.000000,13073.000000,5348.000000,3167.000000,2068.000000,1908.000000,3648.000000,4058.000000,4554.000000,12966.000000,5235.000000,2737.000000,2055.000000,1793.000000,2999.000000,3957.000000,4218.000000,12959.000000,5339.000000,2867.000000,1999.000000,1756.000000,3170.000000,4023.000000,2746.000000,13071.000000,5364.000000,3036.000000,2002.000000,1758.000000,3369.000000,4035.000000,2487.000000,13002.000000,5566.000000,3624.000000,2602.000000,2168.000000,4120.000000,4179.000000,2655.000000,11138.000000,5424.000000,3890.000000,4081.000000,3546.000000,4469.000000,4117.000000,3749.000000,4814.000000,4573.000000,3639.000000,3976.000000,3450.000000,4142.000000,3523.000000,3750.000000,5772.000000,4746.000000,3674.000000,3993.000000,3469.000000,4199.000000,3641.000000,3603.000000,4089.000000,4343.000000,3543.000000,3929.000000,3405.000000,4021.000000,3339.000000,2916.000000
1666172234.047991,0.000000,0.000000,6091.000000,4843.000000,3695.000000,3991.000000,3470.000000,4244.000000,3730.000000,3148.000000,7020.000000,5014.000000,3757.000000,4018.000000,3493.000000,4314.000000,3837.000000,3111.000000,5937.000000,4911.000000,3731.000000,4013.000000,3481.000000,4279.000000,3765.000000,2380.000000,10374.000000,5496.000000,3897.000000,4085.000000,3555.000000,4481.000000,4137.000000,2402.000000,13109.000000,5598.000000,3850.000000,3710.000000,3268.000000,4439.000000,4209.000000,2550.000000,13027.000000,5443.000000,3444.000000,2411.000000,2217.000000,3953.000000,4129.000000,3799.000000,13015.000000,5448.000000,3403.000000,2311.000000,2135.000000,3918.000000,4129.000000,6121.000000,13025.000000,5360.000000,3169.000000,2069.000000,1905.000000,3645.000000,4063.000000,5569.000000,13176.000000,5235.000000,2731.000000,2054.000000,1794.000000,2998.000000,3965.000000,5352.000000,12932.000000,5331.000000,2865.000000,1996.000000,1754.000000,3163.000000,4043.000000,4342.000000,12926.000000,5364.000000,3034.000000,2001.000000,1753.000000,3369.000000,4053.000000,4024.000000,12929.000000,5569.000000,3623.000000,2599.000000,2165.000000,4128.000000,4187.000000,2733.000000,11189.000000,5437.000000,3879.000000,4086.000000,3548.000000,4467.000000,4087.000000,2414.000000,4825.000000,4578.000000,3637.000000,3979.000000,3448.000000,4131.000000,3516.000000,2341.000000,5702.000000,4746.000000,3685.000000,3996.000000,3466.000000,4190.000000,3646.000000,2798.000000,4013.000000,4350.000000,3543.000000,3927.000000,3404.000000,4020.000000,3349.000000,3166.000000
1666172234.407280,0.000000,0.000000,6095.000000,4845.000000,3698.000000,3989.000000,3467.000000,4243.000000,3729.000000,3749.000000,7204.000000,5018.000000,3753.000000,4023.000000,3495.000000,4312.000000,3836.000000,4039.000000,5923.000000,4901.000000,3728.000000,4013.000000,3484.000000,4272.000000,3784.000000,3251.000000,10266.000000,5483.000000,3902.000000,4083.000000,3549.000000,4488.000000,4147.000000,3902.000000,12901.000000,5616.000000,3854.000000,3710.000000,3264.000000,4444.000000,4224.000000,2825.000000,13128.000000,5447.000000,3447.000000,2412.000000,2215.000000,3959.000000,4091.000000,2471.000000,13024.000000,5452.000000,3402.000000,2309.000000,2139.000000,3912.000000,4104.000000,2622.000000,13035.000000,5356.000000,3172.000000,2070.000000,1908.000000,3639.000000,4063.000000,3930.000000,12965.000000,5248.000000,2738.000000,2052.000000,1790.000000,3000.000000,3979.000000,7094.000000,12957.000000,5329.000000,2869.000000,1996.000000,1755.000000,3168.000000,4041.000000,5719.000000,13183.000000,5369.000000,3035.000000,2003.000000,1759.000000,3367.000000,4055.000000,6005.000000,12932.000000,5554.000000,3625.000000,2602.000000,2165.000000,4119.000000,4198.000000,4699.000000,11076.000000,5419.000000,3884.000000,4086.000000,3547.000000,4471.000000,4105.000000,3970.000000,4830.000000,4577.000000,3635.000000,3977.000000,3450.000000,4141.000000,3514.000000,2357.000000,5817.000000,4750.000000,3681.000000,3997.000000,3465.000000,4193.000000,3615.000000,2292.000000,4051.000000,4339.000000,3546.000000,3932.000000,3405.000000,4012.000000,3334.000000,2311.000000
1666172234.750848,0.000000,0.000000,6080.000000,4842.000000,3699.000000,3991.000000,3467.000000,4238.000000,3727.000000,2882.000000,7072.000000,5018.000000,3755.000000,4022.000000,3490.000000,4315.000000,3849.000000,4711.000000,5894.000000,4912.000000,3732.000000,4013.000000,3482.000000,4280.000000,3777.000000,3670.000000,10423.000000,5498.000000,3894.000000,4087.000000,3555.000000,4487.000000,4148.000000,4918.000000,13050.000000,5603.000000,3851.000000,3708.000000,3268.000000,4442.000000,4230.000000,4441.000000,12951.000000,5436.000000,3448.000000,2413.000000,2213.000000,3959.000000,4117.000000,4134.000000,12991.000000,5452.000000,3407.000000,2307.000000,2134.000000,3920.000000,4112.000000,2761.000000,13203.000000,5363.000000,3170.000000,2071.000000,1909.000000,3644.000000,4033.000000,2440.000000,13166.000000,5238.000000,2737.000000,2056.000000,1789.000000,2997.000000,3955.000000,2543.000000,13004.000000,5338.000000,2872.000000,1999.000000,1753.000000,3166.000000,4043.000000,3852.000000,12959.000000,5364.000000,3037.000000,2002.000000,1754.000000,3371.000000,4069.000000,5612.000000,12985.000000,5562.000000,3624.000000,2598.000000,2166.000000,4123.000000,4210.000000,5605.000000,11232.000000,5428.000000,3881.000000,4082.000000,3547.000000,4474.000000,4102.000000,4858.000000,4834.000000,4571.000000,3631.000000,3979.000000,3449.000000,4136.000000,3524.000000,2829.000000,5728.000000,4736.000000,3687.000000,3997.000000,3463.000000,4196.000000,3631.000000,2882.000000,4003.000000,4358.000000,3546.000000,3933.000000,3404.000000,4022.000000,3345.000000,2317.000000
1666172235.110245,0.000000,0.000000,6230.000000,4838.000000,3701.000000,3992.000000,3472.000000,4242.000000,3709.000000,2347.000000,7144.000000,5017.000000,3754.000000,4023.000000,3496.000000,4304.000000,3833.000000,2396.000000,5884.000000,4908.000000,3731.000000,4009.000000,3482.000000,4268.000000,3787.000000,2905.000000,10218.000000,5483.000000,3896.000000,4084.000000,3551.000000,4488.000000,4168.000000,5948.000000,12944.000000,5606.000000,3854.000000,3706.000000,3269.000000,4445.000000,4237.000000,6159.000000,13101.000000,5442.000000,3440.000000,2411.000000,2217.000000,3960.000000,4112.000000,5728.000000,12986.000000,5438.000000,3403.000000,2306.000000,2135.000000,3914.000000,4122.000000,4883.000000,13146.000000,5350.000000,3172.000000,2070.000000,1908.000000,3646.000000,4050.000000,4483.000000,12988.000000,5241.000000,2736.000000,2056.000000,1791.000000,2998.000000,3962.000000,2913.000000,13085.000000,5341.000000,2869.000000,1997.000000,1757.000000,3165.000000,4019.000000,2493.000000,13151.000000,5380.000000,3037.000000,2000.000000,1754.000000,3362.000000,4041.000000,2597.000000,12957.000000,5557.000000,3623.000000,2601.000000,2170.000000,4115.000000,4195.000000,4278.000000,11147.000000,5426.000000,3882.000000,4082.000000,3548.000000,4473.000000,4123.000000,5224.000000,4834.000000,4575.000000,3634.000000,3976.000000,3450.000000,4136.000000,3525.000000,3267.000000,5903.000000,4739.000000,3676.000000,3991.000000,3465.000000,4196.000000,3630.000000,3309.000000,4031.000000,4342.000000,3545.000000,3930.000000,3406.000000,4015.000000,3350.000000,2668.000000
1666172235.469578,0.000000,0.000000,6096.000000,4834.000000,3701.000000,3989.000000,3469.000000,4241.000000,3722.000000,3170.000000,7021.000000,5017.000000,3757.000000,4022.000000,3494.000000,4311.000000,3834.000000,2537.000000,5953.000000,4909.000000,3728.000000,4012.000000,3482.000000,4268.000000,3762.000000,2327.000000,10365.000000,5491.000000,3893.000000,4082.000000,3548.000000,4481.000000,4140.000000,2501.000000,13052.000000,5606.000000,3854.000000,3707.000000,3267.000000,4432.000000,4237.000000,3557.000000,12975.000000,5433.000000,3447.000000,2413.000000,2216.000000,3965.000000,4135.000000,5775.000000,13069.000000,5447.000000,3404.000000,2309.000000,2137.000000,3919.000000,4129.000000,5347.000000,13125.000000,5355.000000,3170.000000,2069.000000,1906.000000,3649.000000,4052.000000,5210.000000,13106.000000,5236.000000,2736.000000,2054.000000,1792.000000,2996.000000,3969.000000,4656.000000,13021.000000,5326.000000,2874.000000,1998.000000,1757.000000,3164.000000,4031.000000,4248.000000,13040.000000,5367.000000,3036.000000,2004.000000,1755.000000,3371.000000,4054.000000,2969.000000,12960.000000,5560.000000,3623.000000,2600.000000,2167.000000,4117.000000,4176.000000,2425.000000,11128.000000,5420.000000,3880.000000,4089.000000,3544.000000,4465.000000,4096.000000,2468.000000,4802.000000,4567.000000,3636.000000,3976.000000,3449.000000,4130.000000,3531.000000,2595.000000,5719.000000,4743.000000,3682.000000,3995.000000,3464.000000,4207.000000,3641.000000,3764.000000,4013.000000,4361.000000,3545.000000,3930.000000,3405.000000,4019.000000,3351.000000,2997.000000
1666172235.828823,0.000000,0.000000,6328.000000,4833.000000,3696.000000,3991.000000,3465.000000,4244.000000,3719.000000,3564.000000,7052.000000,5016.000000,3749.000000,4021.000000,3496.000000,4308.000000,3845.000000,3517.000000,5944.000000,4904.000000,3730.000000,4013.000000,3481.000000,4274.000000,3777.000000,3210.000000,10301.000000,5491.000000,3897.000000,4086.000000,3549.000000,4488.000000,4150.000000,2957.000000,12979.000000,5610.000000,3851.000000,3710.000000,3267.000000,4440.000000,4208.000000,2467.000000,13173.000000,5435.000000,3445.000000,2411.000000,2213.000000,3954.000000,4101.000000,2578.000000,13018.000000,5437.000000,3402.000000,2308.000000,2134.000000,3909.000000,4127.000000,3723.000000,13111.000000,5363.000000,3168.000000,2070.000000,1906.000000,3650.000000,4061.000000,6652.000000,13034.000000,5242.000000,2737.000000,2054.000000,1791.000000,2998.000000,3978.000000,6100.000000,13095.000000,5328.000000,2866.000000,1997.000000,1754.000000,3168.000000,4028.000000,5709.000000,12948.000000,5357.000000,3032.000000,2001.000000,1755.000000,3364.000000,4064.000000,4943.000000,12931.000000,5552.000000,3622.000000,2599.000000,2165.000000,4119.000000,4202.000000,4708.000000,11029.000000,5427.000000,3883.000000,4083.000000,3546.000000,4471.000000,4102.000000,2909.000000,4909.000000,4578.000000,3630.000000,3980.000000,3449.000000,4135.000000,3510.000000,2276.000000,5846.000000,4743.000000,3676.000000,3994.000000,3463.000000,4194.000000,3625.000000,2348.000000,4006.000000,4342.000000,3543.000000,3931.000000,3406.000000,4012.000000,3354.000000,2489.000000
1666172236.172494,0.000000,0.000000,6090.000000,4845.000000,3696.000000,3989.000000,3470.000000,4244.000000,3727.000000,3981.000000,7003.000000,5019.000000,3751.000000,4023.000000,3489.000000,4309.000000,3848.000000,4423.000000,6067.000000,4906.000000,3725.000000,4011.000000,3484.000000,4275.000000,3768.000000,3649.000000,10241.000000,5484.000000,3893.000000,4088.000000,3554.000000,4480.000000,4152.000000,4903.000000,13084.000000,5600.000000,3854.000000,3709.000000,3271.000000,4436.000000,4237.000000,4560.000000,13021.000000,5443.000000,3446.000000,2415.000000,2215.000000,3964.000000,4111.000000,3112.000000,12995.000000,5448.000000,3408.000000,2306.000000,2136.000000,3913.000000,4097.000000,2385.000000,13147.000000,5350.000000,3171.000000,2068.000000,1905.000000,3645.000000,4041.000000,2498.000000,13030.000000,5234.000000,2739.000000,2054.000000,1789.000000,2991.000000,3978.000000,3301.000000,12953.000000,5330.000000,2867.000000,1998.000000,1753.000000,3170.000000,4043.000000,5776.000000,12919.000000,5374.000000,3033.000000,2002.000000,1757.000000,3370.000000,4070.000000,5658.000000,13175.000000,5559.000000,3620.000000,2599.000000,2168.000000,4123.000000,4194.000000,5785.000000,11087.000000,5413.000000,3877.000000,4085.000000,3547.000000,4466.000000,4117.000000,4598.000000,4798.000000,4573.000000,3638.000000,3976.000000,3449.000000,4133.000000,3529.000000,2776.000000,5708.000000,4748.000000,3678.000000,3996.000000,3463.000000,4201.000000,3633.000000,2455.000000,4066.000000,4344.000000,3542.000000,3928.000000,3407.000000,4019.000000,3338.000000,2247.000000
1666172236.531788,0.000000,0.000000,6209.000000,4835.000000,3695.000000,3996.000000,3466.000000,4244.000000,3710.000000,2370.000000,7014.000000,5010.000000,3755.000000,4020.000000,3491.000000,4304.000000,3857.000000,2757.000000,5908.000000,4904.000000,3728.000000,4012.000000,3479.000000,4279.000000,3776.000000,3715.000000,10254.000000,5486.000000,3893.000000,4084.000000,3551.000000,4486.000000,4168.000000,5342.000000,13095.000000,5597.000000,3852.000000,3705.000000,3273.000000,4448.000000,4224.000000,5804.000000,12975.000000,5435.000000,3445.000000,2413.000000,2217.000000,3959.000000,4121.000000,5215.000000,13101.000000,5445.000000,3403.000000,2309.000000,2137.000000,3915.000000,4126.000000,4813.000000,13074.000000,5353.000000,3172.000000,2071.000000,1907.000000,3649.000000,4048.000000,3443.000000,13122.000000,5231.000000,2738.000000,2054.000000,1792.000000,2996.000000,3952.000000,2522.000000,13168.000000,5337.000000,2867.000000,1998.000000,1755.000000,3164.000000,4018.000000,2597.000000,12927.000000,5361.000000,3036.000000,2002.000000,1756.000000,3361.000000,4068.000000,3487.000000,13002.000000,5559.000000,3623.000000,2599.000000,2165.000000,4132.000000,4203.000000,6094.000000,11069.000000,5433.000000,3881.000000,4082.000000,3549.000000,4474.000000,4114.000000,5479.000000,4955.000000,4568.000000,3633.000000,3976.000000,3446.000000,4140.000000,3520.000000,3217.000000,5709.000000,4733.000000,3674.000000,3993.000000,3468.000000,4195.000000,3636.000000,3191.000000,4007.000000,4346.000000,3545.000000,3929.000000,3405.000000,4016.000000,3348.000000,2618.000000
1666172236.875461,0.000000,0.000000,6123.000000,4841.000000,3699.000000,3989.000000,3467.000000,4246.000000,3718.000000,2609.000000,7087.000000,5016.000000,3755.000000,4020.000000,3494.000000,4310.000000,3833.000000,2327.000000,6079.000000,4904.000000,3730.000000,4011.000000,3485.000000,4272.000000,3762.000000,2390.000000,10252.000000,5491.000000,3895.000000,4087.000000,3550.000000,4482.000000,4163.000000,3156.000000,12942.000000,5607.000000,3855.000000,3707.000000,3262.000000,4447.000000,4238.000000,6206.000000,12973.000000,5445.000000,3444.000000,2411.000000,2214.000000,3967.000000,4126.000000,6020.000000,13134.000000,5437.000000,3402.000000,2305.000000,2139.000000,3919.000000,4114.000000,5456.000000,13030.000000,5357.000000,3167.000000,2071.000000,1906.000000,3648.000000,4052.000000,4662.000000,12971.000000,5234.000000,2736.000000,2052.000000,1791.000000,2993.000000,3976.000000,4233.000000,12951.000000,5326.000000,2869.000000,1996.000000,1756.000000,3173.000000,4030.000000,3269.000000,12956.000000,5369.000000,3035.000000,1999.000000,1757.000000,3362.000000,4046.000000,2460.000000,13045.000000,5564.000000,3624.000000,2598.000000,2168.000000,4121.000000,4172.000000,2520.000000,11042.000000,5420.000000,3880.000000,4081.000000,3549.000000,4462.000000,4125.000000,2956.000000,4815.000000,4566.000000,3638.000000,3972.000000,3447.000000,4137.000000,3525.000000,3312.000000,5702.000000,4754.000000,3676.000000,3994.000000,3461.000000,4201.000000,3643.000000,3382.000000,4120.000000,4339.000000,3543.000000,3928.000000,3408.000000,4018.000000,3341.000000,2881.000000
